sync_num,icg_timestamp,ecg_timestamp,time_diff_ms,elapsed_time_s,elapsed_time_min,icg_samples_between,ecg_samples_between,icg_sample_deviation,ecg_sample_deviation,,,,,
33,1761738135.564500,1761738135.560500,4,-19801.3,-330.02,396,399,-4,-1,,,,,
34,1761738136.557000,1761738136.560500,3.5,-19800.3,-330,396,394,-4,-6,,,,91,
35,1761738137.561500,1761738137.553500,8,-19799.3,-329.99,395,398,-5,-2,,,,2067,
36,1761738138.558500,1761738138.555500,3,-19798.3,-329.97,398,398,-2,-2,,,,1364,
37,1761738139.565500,1761738139.554000,11.5,-19797.3,-329.95,395,398,-5,-2,,,,,
38,1761738140.562500,1761738140.551500,11,-19796.3,-329.94,397,400,-3,0,,,,,
39,1761738141.557500,1761738141.558500,1,-19795.3,-329.92,397,397,-3,-3,,,,,
40,1761738142.559500,1761738142.558000,1.5,-19794.3,-329.9,396,397,-4,-3,,,,,
41,1761738143.561500,1761738143.558500,3,-19793.3,-329.89,396,397,-4,-3,,,,,
42,1761738144.558500,1761738144.557000,1.5,-19792.3,-329.87,398,397,-2,-3,,,,,
43,1761738145.565500,1761738145.556500,9,-19791.3,-329.85,397,400,-3,0,,,,,
44,1761738146.566000,1761738146.559000,7,-19790.3,-329.84,397,397,-3,-3,,,,,
45,1761738147.561000,1761738147.560000,1,-19789.3,-329.82,396,397,-4,-3,,,,,
46,1761738148.560500,1761738148.558000,2.5,-19788.3,-329.8,396,398,-4,-2,,,,,
47,1761738149.563500,1761738149.556500,7,-19787.3,-329.79,396,399,-4,-1,,,,,
48,1761738150.565500,1761738150.558500,7,-19786.3,-329.77,396,398,-4,-2,,,,,
49,1761738151.565000,1761738151.559000,6,-19785.3,-329.75,397,398,-3,-2,,,,,
50,1761738152.567000,1761738152.556500,10.5,-19784.3,-329.74,397,399,-3,-1,,,,,
51,1761738153.562000,1761738153.561000,1,-19783.3,-329.72,395,395,-5,-5,,,,,
52,1761738154.564500,1761738154.561500,3,-19782.3,-329.7,397,397,-3,-3,,,,,
53,1761738155.566500,1761738155.561000,5.5,-19781.3,-329.69,396,397,-4,-3,,,,,
54,1761738156.569500,1761738156.561500,8,-19780.3,-329.67,396,397,-4,-3,,,,,
55,1761738157.571500,1761738157.565000,6.5,-19779.3,-329.65,396,397,-4,-3,,,,,
56,1761738158.573500,1761738158.560000,13.5,-19778.3,-329.64,395,399,-5,-1,,,,,
57,1761738159.563500,1761738159.564500,1,-19777.3,-329.62,395,397,-5,-3,,,,,
58,1761738160.564500,1761738160.561500,3,-19776.3,-329.6,397,399,-3,-1,,,,,
59,1761738161.569000,1761738161.566000,3,-19775.3,-329.59,394,397,-6,-3,,,,,
60,1761738162.571000,1761738162.564500,6.5,-19774.3,-329.57,395,397,-5,-3,,,,,
61,1761738163.570500,1761738163.559000,11.5,-19773.3,-329.55,397,399,-3,-1,,,,,
62,1761738164.572500,1761738164.559000,13.5,-19772.3,-329.54,396,400,-4,0,,,,,
63,1761738165.565000,1761738165.564500,0.5,-19771.3,-329.52,396,398,-4,-2,,,,,
64,1761738166.568000,1761738166.567500,0.5,-19770.3,-329.5,395,396,-5,-4,,,,,
65,1761738167.566000,1761738167.567000,1,-19769.3,-329.49,397,397,-3,-3,,,,,
66,1761738168.570500,1761738168.570000,0.5,-19768.3,-329.47,397,396,-3,-4,,,,,
67,1761738169.573500,1761738169.564500,9,-19767.3,-329.45,397,398,-3,-2,,,,,
68,1761738170.575500,1761738170.562000,13.5,-19766.3,-329.44,396,398,-4,-2,,,,,
69,1761738171.568000,1761738171.567500,0.5,-19765.3,-329.42,396,397,-4,-3,,,,,
70,1761738172.573000,1761738172.567000,6,-19764.3,-329.4,392,397,-8,-3,,,,,
71,1761738173.575000,1761738173.564000,11,-19763.3,-329.39,394,399,-6,-1,,,,,
72,1761738174.577000,1761738174.567000,10,-19762.3,-329.37,396,398,-4,-2,,,,,
73,1761738175.577500,1761738175.564000,13.5,-19761.3,-329.35,396,399,-4,-1,,,,,
74,1761738176.577000,1761738176.564000,13,-19760.3,-329.34,396,399,-4,-1,,,,,
75,1761738177.569500,1761738177.569500,0,-19759.3,-329.32,396,398,-4,-2,,,,,
76,1761738178.571500,1761738178.571500,0,-19758.3,-329.3,396,397,-4,-3,,,,,
77,1761738179.573500,1761738179.571000,2.5,-19757.3,-329.29,395,396,-5,-4,,,,,
78,1761738180.576500,1761738180.569000,7.5,-19756.3,-329.27,397,398,-3,-2,,,,,
79,1761738181.585000,1761738181.569000,16,-19755.3,-329.25,394,398,-6,-2,,,,,
80,1761738182.585500,1761738182.566500,19,-19754.3,-329.24,394,399,-6,-1,,,,,
81,1761738183.573000,1761738183.571000,2,-19753.3,-329.22,394,394,-6,-6,,,,,
82,1761738184.576000,1761738184.570500,5.5,-19752.3,-329.2,396,397,-4,-3,,,,,
83,1761738185.578000,1761738185.571000,7,-19751.3,-329.19,394,397,-6,-3,,,,,
84,1761738186.576000,1761738186.574000,2,-19750.3,-329.17,396,397,-4,-3,,,,,
85,1761738187.579000,1761738187.568500,10.5,-19749.3,-329.15,397,399,-3,-1,,,,,
86,1761738188.587000,1761738188.568500,18.5,-19748.3,-329.14,395,400,-5,0,,,,,
87,1761738189.577000,1761738189.571500,5.5,-19747.3,-329.12,395,398,-5,-2,,,,,
88,1761738190.580000,1761738190.572000,8,-19746.3,-329.1,394,398,-6,-2,,,,,
89,1761738191.578000,1761738191.575000,3,-19745.3,-329.09,397,397,-3,-3,,,,,
90,1761738192.585000,1761738192.573000,12,-19744.3,-329.07,394,398,-6,-2,,,,,
91,1761738193.585500,1761738193.572500,13,-19743.3,-329.05,791,399,391,-1,,,,,
93,1761738195.577500,1761738195.574500,3,-19741.3,-329.02,394,398,-6,-2,,,,,1274
94,1761738196.580500,1761738196.575000,5.5,-19740.3,-329,397,398,-3,-2,,,,,
95,1761738197.582500,1761738197.577000,5.5,-19739.3,-328.99,395,398,-5,-2,,,1.002999783,-0.002999783,
96,1761738198.582000,1761738198.576500,5.5,-19738.3,-328.97,397,398,-3,-2,,,1.002000093,-0.002000093,
97,1761738199.583000,1761738199.574000,9,-19737.3,-328.95,396,399,-4,-1,,,0.999500036,0.000499964,
98,1761738200.575500,1761738200.575000,0.5,-19736.3,-328.94,394,398,-6,-2,,,1.000999928,-0.000999928,
99,1761738201.577500,1761738201.579500,2,-19735.3,-328.92,395,397,-5,-3,,,0.992500067,0.007499933,
100,1761738202.585500,1761738202.580000,5.5,-19734.3,-328.9,393,397,-7,-3,,,1.002000093,-0.002000093,
101,1761738203.586000,1761738203.584500,1.5,-19733.3,-328.89,395,395,-5,-5,,,1.007999897,-0.007999897,
102,1761738204.589500,1761738204.575500,14,-19732.3,-328.87,394,398,-6,-2,,,1.000499964,-0.000499964,
103,1761738205.586500,1761738205.573000,13.5,-19731.3,-328.85,396,399,-4,-1,,,1.003499985,-0.003499985,
104,1761738206.579000,1761738206.576000,3,-19730.3,-328.84,394,399,-6,-1,,,0.996999979,0.003000021,
105,1761738207.582000,1761738207.576500,5.5,-19729.3,-328.82,395,397,-5,-3,,,0.992500067,0.007499933,
106,1761738208.584000,1761738208.576000,8,-19728.3,-328.8,395,400,-5,0,,,1.003000021,-0.003000021,
107,1761738209.592000,1761738209.579000,13,-19727.3,-328.79,394,397,-6,-3,,,1.002000093,-0.002000093,
108,1761738210.591500,1761738210.579500,12,-19726.3,-328.77,395,398,-5,-2,,,1.007999897,-0.007999897,
109,1761738211.593500,1761738211.577000,16.5,-19725.3,-328.75,394,399,-6,-1,,,0.999500036,0.000499964,
110,1761738212.581000,1761738212.583000,2,-19724.3,-328.74,394,397,-6,-3,,,1.001999855,-0.001999855,
111,1761738213.585500,1761738213.583500,2,-19723.3,-328.72,393,397,-7,-3,,,0.987500191,0.012499809,
112,1761738214.585000,1761738214.579500,5.5,-19722.3,-328.7,395,398,-5,-2,,,1.004499912,-0.004499912,
113,1761738215.589500,1761738215.582500,7,-19721.3,-328.69,393,397,-7,-3,,,0.999500036,0.000499964,
114,1761738216.591500,1761738216.582000,9.5,-19720.3,-328.67,395,398,-5,-2,,,1.004499912,-0.004499912,
115,1761738217.593500,1761738217.579500,14,-19719.3,-328.65,395,399,-5,-1,,,1.002000093,-0.002000093,
116,1761738218.583500,1761738218.581500,2,-19718.3,-328.64,396,397,-4,-3,,,1.001999855,-0.001999855,
117,1761738219.585500,1761738219.581000,4.5,-19717.3,-328.62,396,398,-4,-2,,,0.99000001,0.00999999,
118,1761738220.588500,1761738220.584000,4.5,-19716.3,-328.6,393,397,-7,-3,,,1.002000093,-0.002000093,
119,1761738221.590500,1761738221.582000,8.5,-19715.3,-328.59,394,399,-6,-1,,,1.003000021,-0.003000021,
120,1761738222.597000,1761738222.584000,13,-19714.3,-328.57,394,398,-6,-2,,,1.002000093,-0.002000093,
121,1761738223.591500,1761738223.581500,10,-19713.3,-328.55,397,399,-3,-1,,,1.006499767,-0.006499767,
122,1761738224.586500,1761738224.583500,3,-19712.3,-328.54,393,398,-7,-2,,,0.99450016,0.00549984,
123,1761738225.586000,1761738225.589500,3.5,-19711.3,-328.52,396,395,-4,-5,,,0.994999886,0.005000114,
124,1761738226.594000,1761738226.584000,10,-19710.3,-328.5,396,398,-4,-2,,,0.999500036,0.000499964,
125,1761738227.594500,1761738227.586000,8.5,-19709.3,-328.49,394,398,-6,-2,,,1.008000135,-0.008000135,
126,1761738228.595000,1761738228.585500,9.5,-19708.3,-328.47,396,397,-4,-3,,,1.000499964,-0.000499964,
127,1761738229.595500,1761738229.580500,15,-19707.3,-328.45,396,400,-4,0,,,1.000499964,-0.000499964,
128,1761738230.588000,1761738230.586000,2,-19706.3,-328.44,394,398,-6,-2,,,1.000499964,-0.000499964,
129,1761738231.595000,1761738231.583000,12,-19705.3,-328.42,393,400,-7,0,,,0.992500067,0.007499933,
130,1761738232.594500,1761738232.588500,6,-19704.3,-328.4,394,398,-6,-2,,,1.006999969,-0.006999969,
131,1761738233.600000,1761738233.588000,12,-19703.3,-328.39,394,397,-6,-3,,,0.999500036,0.000499964,
132,1761738234.602000,1761738234.588500,13.5,-19702.3,-328.37,395,398,-5,-2,,,1.00549984,-0.00549984,
133,1761738235.594000,1761738235.586000,8,-19701.3,-328.35,398,399,-2,-1,,,1.002000093,-0.002000093,
134,1761738236.591500,1761738236.587000,4.5,-19700.3,-328.34,398,399,-2,-1,,,0.992000103,0.007999897,
135,1761738237.590000,1761738237.588000,2,-19699.3,-328.32,399,399,-1,-1,,,0.997499943,0.002500057,
136,1761738238.591000,1761738238.587500,3.5,-19698.3,-328.3,398,399,-2,-1,,,0.99849987,0.00150013,
137,1761738239.590500,1761738239.586000,4.5,-19697.3,-328.29,399,400,-1,0,,,1.001000166,-0.001000166,
138,1761738240.597500,1761738240.590500,7,-19696.3,-328.27,396,397,-4,-3,,,0.999500036,0.000499964,
139,1761738241.600500,1761738241.585500,15,-19695.3,-328.25,395,400,-5,0,,,1.006999969,-0.006999969,
140,1761738242.590500,1761738242.591000,0.5,-19694.3,-328.24,396,397,-4,-3,,,1.003000021,-0.003000021,
141,1761738243.595000,1761738243.593000,2,-19693.3,-328.22,395,397,-5,-3,,,0.99000001,0.00999999,
142,1761738244.600500,1761738244.592500,8,-19692.3,-328.2,393,397,-7,-3,,,1.004499912,-0.004499912,
143,1761738245.602500,1761738245.593000,9.5,-19691.3,-328.19,394,398,-6,-2,,,1.005500078,-0.005500078,
144,1761738246.603000,1761738246.592500,10.5,-19690.3,-328.17,396,398,-4,-2,,,1.001999855,-0.001999855,
145,1761738247.605000,1761738247.590000,15,-19689.2,-328.15,395,399,-5,-1,,,1.000499964,-0.000499964,
146,1761738248.595000,1761738248.593500,1.5,-19688.3,-328.14,394,396,-6,-4,,,1.002000093,-0.002000093,
147,1761738249.598000,1761738249.593000,5,-19687.3,-328.12,393,397,-7,-3,,,0.99000001,0.00999999,
148,1761738250.600000,1761738250.597500,2.5,-19686.3,-328.1,395,397,-5,-3,,,1.003000021,-0.003000021,
149,1761738251.600500,1761738251.598000,2.5,-19685.3,-328.09,396,397,-4,-3,,,1.001999855,-0.001999855,
150,1761738252.608500,1761738252.595000,13.5,-19684.2,-328.07,394,398,-6,-2,,,1.000500202,-0.000500202,
151,1761738253.605500,1761738253.592500,13,-19683.2,-328.05,395,399,-5,-1,,,1.007999897,-0.007999897,
152,1761738254.595500,1761738254.599500,4,-19682.3,-328.04,396,396,-4,-4,,,0.996999979,0.003000021,
153,1761738255.601000,1761738255.596500,4.5,-19681.3,-328.02,394,397,-6,-3,,,0.99000001,0.00999999,
154,1761738256.605500,1761738256.598500,7,-19680.2,-328,393,397,-7,-3,,,1.005500078,-0.005500078,
155,1761738257.607500,1761738257.595500,12,-19679.2,-327.99,394,398,-6,-2,,,1.004499912,-0.004499912,
156,1761738258.612000,1761738258.592000,20,-19678.2,-327.97,394,399,-6,-1,,,1.002000093,-0.002000093,
157,1761738259.614000,1761738259.592000,22,-19677.2,-327.95,393,398,-7,-2,,,1.004499912,-0.004499912,
158,1761738260.599000,1761738260.599000,0,-19676.3,-327.94,395,396,-5,-4,,,1.002000093,-0.002000093,
159,1761738261.601000,1761738261.597000,4,-19675.3,-327.92,395,397,-5,-3,,,0.984999895,0.015000105,
160,1761738262.603000,1761738262.594000,9,-19674.3,-327.9,394,399,-6,-1,,,1.002000093,-0.002000093,
161,1761738263.606000,1761738263.594500,11.5,-19673.2,-327.89,396,399,-4,-1,,,1.001999855,-0.001999855,
162,1761738264.616500,1761738264.596500,20,-19672.2,-327.87,393,399,-7,-1,,,1.003000021,-0.003000021,
163,1761738265.616000,1761738265.596500,19.5,-19671.2,-327.85,393,399,-7,-1,,,1.010499954,-0.010499954,
164,1761738266.601000,1761738266.601000,0,-19670.3,-327.84,394,397,-6,-3,,,0.999500036,0.000499964,
165,1761738267.605500,1761738267.598000,7.5,-19669.2,-327.82,394,398,-6,-2,,,0.985000134,0.014999866,
166,1761738268.611000,1761738268.598500,12.5,-19668.2,-327.8,392,398,-8,-2,,,1.004499912,-0.004499912,
167,1761738269.612000,1761738269.603000,9,-19667.2,-327.79,394,396,-6,-4,,,1.005500078,-0.005500078,
168,1761738270.614000,1761738270.596000,18,-19666.2,-327.77,394,400,-6,0,,,1.000999928,-0.000999928,
169,1761738271.609500,1761738271.598500,11,-19665.2,-327.75,396,399,-4,-1,,,1.002000093,-0.002000093,
170,1761738272.602000,1761738272.603000,1,-19664.3,-327.74,395,397,-5,-3,,,0.995499849,0.004500151,
171,1761738273.607500,1761738273.605000,2.5,-19663.2,-327.72,393,397,-7,-3,,,0.992500067,0.007499933,
172,1761738274.613500,1761738274.604500,9,-19662.2,-327.7,393,397,-7,-3,,,1.005500078,-0.005500078,
173,1761738275.615500,1761738275.606500,9,-19661.2,-327.69,393,397,-7,-3,,,1.006000042,-0.006000042,
174,1761738276.618500,1761738276.606000,12.5,-19660.2,-327.67,393,397,-7,-3,,,1.001999855,-0.001999855,
175,1761738277.619000,1761738277.601000,18,-19659.2,-327.65,394,399,-6,-1,,,1.003000021,-0.003000021,
176,1761738278.606500,1761738278.603000,3.5,-19658.2,-327.64,392,398,-8,-2,,,1.000499964,-0.000499964,
177,1761738279.612000,1761738279.605000,7,-19657.2,-327.62,394,398,-6,-2,,,0.987499952,0.012500048,
178,1761738280.612500,1761738280.606500,6,-19656.2,-327.6,395,398,-5,-2,,,1.005500078,-0.005500078,
179,1761738281.614500,1761738281.607500,7,-19655.2,-327.59,395,397,-5,-3,,,1.000499964,-0.000499964,
180,1761738282.617500,1761738282.603000,14.5,-19654.2,-327.57,395,398,-5,-2,,,1.002000093,-0.002000093,
181,1761738283.617000,1761738283.600500,16.5,-19653.2,-327.55,395,400,-5,0,,,1.003000021,-0.003000021,
182,1761738284.607000,1761738284.603500,3.5,-19652.2,-327.54,395,399,-5,-1,,,0.999500036,0.000499964,
183,1761738285.609000,1761738285.603000,6,-19651.2,-327.52,394,399,-6,-1,,,0.99000001,0.00999999,
184,1761738286.617000,1761738286.603500,13.5,-19650.2,-327.5,393,400,-7,0,,,1.001999855,-0.001999855,
185,1761738287.621000,1761738287.611500,9.5,-19649.2,-327.49,394,397,-6,-3,,,1.008000135,-0.008000135,
186,1761738288.625500,1761738288.606000,19.5,-19648.2,-327.47,393,399,-7,-1,,,1.003999949,-0.003999949,
187,1761738289.625000,1761738289.606000,19,-19647.2,-327.45,394,399,-6,-1,,,1.004499912,-0.004499912,
188,1761738290.612500,1761738290.610500,2,-19646.2,-327.44,393,397,-7,-3,,,0.999500036,0.000499964,
189,1761738291.615500,1761738291.607500,8,-19645.2,-327.42,394,398,-6,-2,,,0.987499952,0.012500048,
190,1761738292.620000,1761738292.607000,13,-19644.2,-327.4,393,398,-7,-2,,,1.003000021,-0.003000021,
191,1761738293.624500,1761738293.610500,14,-19643.2,-327.39,393,397,-7,-3,,,1.004499912,-0.004499912,
192,1761738294.625500,1761738294.607500,18,-19642.2,-327.37,394,398,-6,-2,,,1.004500151,-0.004500151,
193,1761738295.628500,1761738295.605000,23.5,-19641.2,-327.35,393,399,-7,-1,,,1.000999928,-0.000999928,
194,1761738296.613500,1761738296.609500,4,-19640.2,-327.34,394,398,-6,-2,,,1.003000021,-0.003000021,
195,1761738297.615500,1761738297.613000,2.5,-19639.2,-327.32,393,396,-7,-4,,,0.985000134,0.014999866,
196,1761738298.620000,1761738298.615000,5,-19638.2,-327.3,394,396,-6,-4,,,1.001999855,-0.001999855,
197,1761738299.624500,1761738299.612000,12.5,-19637.2,-327.29,393,397,-7,-3,,,1.004499912,-0.004499912,
198,1761738300.631500,1761738300.609000,22.5,-19636.2,-327.27,393,398,-7,-2,,,1.004500151,-0.004500151,
199,1761738301.636000,1761738301.606500,29.5,-19635.2,-327.25,392,399,-8,-1,,,1.006999969,-0.006999969,
200,1761738302.618500,1761738302.611000,7.5,-19634.2,-327.24,393,398,-7,-2,,,1.004499912,-0.004499912,
201,1761738303.620500,1761738303.613000,7.5,-19633.2,-327.22,391,398,-9,-2,,,0.982500076,0.017499924,
202,1761738304.626000,1761738304.612500,13.5,-19632.2,-327.2,392,398,-8,-2,,,1.002000093,-0.002000093,
203,1761738305.629000,1761738305.613000,16,-19631.2,-327.19,392,398,-8,-2,,,1.00549984,-0.00549984,
204,1761738306.632500,1761738306.612500,20,-19630.2,-327.17,394,398,-6,-2,,,1.003000021,-0.003000021,
205,1761738307.637000,1761738307.610000,27,-19629.2,-327.15,392,400,-8,0,,,1.003499985,-0.003499985,
206,1761738308.619500,1761738308.617000,2.5,-19628.2,-327.14,392,397,-8,-3,,,1.004500151,-0.004500151,
207,1761738309.621500,1761738309.621500,0,-19627.2,-327.12,394,396,-6,-4,,,0.982499838,0.017500162,
208,1761738310.627000,1761738310.617500,9.5,-19626.2,-327.1,393,397,-7,-3,,,1.002000093,-0.002000093,
209,1761738311.631500,1761738311.618000,13.5,-19625.2,-327.09,393,397,-7,-3,,,1.005500078,-0.005500078,
210,1761738312.634000,1761738312.616000,18,-19624.2,-327.07,394,398,-6,-2,,,1.004499912,-0.004499912,
211,1761738313.636000,1761738313.613500,22.5,-19623.2,-327.05,393,399,-7,-1,,,1.002500057,-0.002500057,
212,1761738314.621000,1761738314.618000,3,-19622.2,-327.04,395,397,-5,-3,,,1.001999855,-0.001999855,
213,1761738315.626500,1761738315.620000,6.5,-19621.2,-327.02,394,398,-6,-2,,,0.985000134,0.014999866,
214,1761738316.628000,1761738316.620500,7.5,-19620.2,-327,394,398,-6,-2,,,1.00549984,-0.00549984,
215,1761738317.632500,1761738317.622500,10,-19619.2,-326.99,394,397,-6,-3,,,1.00150013,-0.00150013,
216,1761738318.634500,1761738318.619500,15,-19618.2,-326.97,394,400,-6,0,,,1.004499912,-0.004499912,
217,1761738319.636500,1761738319.622000,14.5,-19617.2,-326.95,396,399,-4,-1,,,1.002000093,-0.002000093,
218,1761738320.629000,1761738320.625000,4,-19616.2,-326.94,395,398,-5,-2,,,1.001999855,-0.001999855,
219,1761738321.632000,1761738321.624500,7.5,-19615.2,-326.92,395,399,-5,-1,,,0.992500067,0.007499933,
220,1761738322.635000,1761738322.625500,9.5,-19614.2,-326.9,395,399,-5,-1,,,1.003000021,-0.003000021,
221,1761738323.644500,1761738323.630000,14.5,-19613.2,-326.89,391,397,-9,-3,,,1.003000021,-0.003000021,
222,1761738324.640500,1761738324.632000,8.5,-19612.2,-326.87,394,398,-6,-2,,,1.009500027,-0.009500027,
223,1761738325.628000,1761738325.629500,1.5,-19611.2,-326.85,392,397,-8,-3,,,0.996000051,0.003999949,
224,1761738326.631000,1761738326.629000,2,-19610.2,-326.84,393,397,-7,-3,,,0.987499952,0.012500048,
225,1761738327.638000,1761738327.631000,7,-19609.2,-326.82,393,398,-7,-2,,,1.003000021,-0.003000021,
226,1761738328.641000,1761738328.631500,9.5,-19608.2,-326.8,392,397,-8,-3,,,1.006999969,-0.006999969,
227,1761738329.644000,1761738329.628500,15.5,-19607.2,-326.79,393,398,-7,-2,,,1.003000021,-0.003000021,
228,1761738330.643500,1761738330.629000,14.5,-19606.2,-326.77,394,400,-6,0,,,1.003000021,-0.003000021,
229,1761738331.631000,1761738331.631500,0.5,-19605.2,-326.75,392,397,-8,-3,,,0.999500036,0.000499964,
230,1761738332.634000,1761738332.631000,3,-19604.2,-326.74,393,398,-7,-2,,,0.987499952,0.012500048,
231,1761738333.639500,1761738333.633000,6.5,-19603.2,-326.72,393,397,-7,-3,,,1.003000021,-0.003000021,
232,1761738334.640500,1761738334.632500,8,-19602.2,-326.7,394,397,-6,-3,,,1.00549984,-0.00549984,
233,1761738335.642500,1761738335.628500,14,-19601.2,-326.69,393,398,-7,-2,,,1.001000166,-0.001000166,
234,1761738336.643000,1761738336.630500,12.5,-19600.2,-326.67,394,400,-6,0,,,1.001999855,-0.001999855,
235,1761738337.630500,1761738337.633000,2.5,-19599.2,-326.65,393,397,-7,-3,,,1.000499964,-0.000499964,
236,1761738338.636000,1761738338.632500,3.5,-19598.2,-326.64,395,397,-5,-3,,,0.987500191,0.012499809,
237,1761738339.639000,1761738339.633000,6,-19597.2,-326.62,393,397,-7,-3,,,1.00549984,-0.00549984,
238,1761738340.642000,1761738340.632500,9.5,-19596.2,-326.6,393,397,-7,-3,,,1.003000021,-0.003000021,
239,1761738341.645000,1761738341.627000,18,-19595.2,-326.59,393,399,-7,-1,,,1.003000021,-0.003000021,
240,1761738342.644500,1761738342.627000,17.5,-19594.2,-326.57,394,400,-6,0,,,1.003000021,-0.003000021,
241,1761738343.632000,1761738343.630500,1.5,-19593.2,-326.55,394,399,-6,-1,,,0.999500036,0.000499964,
242,1761738344.637500,1761738344.635000,2.5,-19592.2,-326.54,393,397,-7,-3,,,0.987499952,0.012500048,
243,1761738345.640500,1761738345.632000,8.5,-19591.2,-326.52,394,399,-6,-1,,,1.005500078,-0.005500078,
244,1761738346.643500,1761738346.635500,8,-19590.2,-326.5,395,397,-5,-3,,,1.003000021,-0.003000021,
245,1761738347.649000,1761738347.633500,15.5,-19589.2,-326.49,393,398,-7,-2,,,1.003000021,-0.003000021,
246,1761738348.646000,1761738348.631000,15,-19588.2,-326.47,395,397,-5,-3,,,1.00549984,-0.00549984,
247,1761738349.636000,1761738349.636500,0.5,-19587.2,-326.45,394,397,-6,-3,,,0.996999979,0.003000021,
248,1761738350.639000,1761738350.636000,3,-19586.2,-326.44,394,398,-6,-2,,,0.99000001,0.00999999,
249,1761738351.642000,1761738351.637000,5,-19585.2,-326.42,394,398,-6,-2,,,1.003000021,-0.003000021,
250,1761738352.646500,1761738352.639000,7.5,-19584.2,-326.4,393,398,-7,-2,,,1.003000021,-0.003000021,
251,1761738353.646000,1761738353.630000,16,-19583.2,-326.39,396,400,-4,0,,,1.004500151,-0.004500151,
252,1761738354.647000,1761738354.632500,14.5,-19582.2,-326.37,395,399,-5,-1,,,0.999499798,0.000500202,
253,1761738355.637000,1761738355.636000,1,-19581.2,-326.35,394,399,-6,-1,,,1.001000166,-0.001000166,
254,1761738356.638000,1761738356.633000,5,-19580.2,-326.34,395,400,-5,0,,,0.99000001,0.00999999,
255,1761738357.645000,1761738357.635000,10,-19579.2,-326.32,392,399,-8,-1,,,1.000999928,-0.000999928,
256,1761738358.647000,1761738358.638500,8.5,-19578.2,-326.3,395,397,-5,-3,,,1.006999969,-0.006999969,
257,1761738359.653000,1761738359.638000,15,-19577.2,-326.29,392,398,-8,-2,,,1.002000093,-0.002000093,
258,1761738360.652500,1761738360.635500,17,-19576.2,-326.27,394,399,-6,-1,,,1.006000042,-0.006000042,
259,1761738361.640000,1761738361.640000,0,-19575.2,-326.25,394,398,-6,-2,,,0.999499798,0.000500202,
260,1761738362.644500,1761738362.642000,2.5,-19574.2,-326.24,393,395,-7,-5,,,0.987500191,0.012499809,
261,1761738363.646500,1761738363.641500,5,-19573.2,-326.22,393,397,-7,-3,,,1.004499912,-0.004499912,
262,1761738364.649500,1761738364.642000,7.5,-19572.2,-326.2,394,398,-6,-2,,,1.002000093,-0.002000093,
263,1761738365.654000,1761738365.638000,16,-19571.2,-326.19,395,399,-5,-1,,,1.002999783,-0.002999783,
264,1761738366.656000,1761738366.638000,18,-19570.2,-326.17,394,399,-6,-1,,,1.004500151,-0.004500151,
265,1761738367.643500,1761738367.643500,0,-19569.2,-326.15,394,396,-6,-4,,,1.001999855,-0.001999855,
266,1761738368.645500,1761738368.643000,2.5,-19568.2,-326.14,394,398,-6,-2,,,0.987500191,0.012499809,
267,1761738369.652500,1761738369.647500,5,-19567.2,-326.12,392,396,-8,-4,,,1.001999855,-0.001999855,
268,1761738370.653000,1761738370.644500,8.5,-19566.2,-326.1,394,397,-6,-3,,,1.006999969,-0.006999969,
269,1761738371.660000,1761738371.641500,18.5,-19565.2,-326.09,394,399,-6,-1,,,1.000500202,-0.000500202,
270,1761738372.657000,1761738372.641500,15.5,-19564.2,-326.07,395,398,-5,-2,,,1.006999969,-0.006999969,
271,1761738373.647000,1761738373.647000,0,-19563.2,-326.05,394,397,-6,-3,,,0.996999979,0.003000021,
272,1761738374.649000,1761738374.642500,6.5,-19562.2,-326.04,394,399,-6,-1,,,0.99000001,0.00999999,
273,1761738375.654500,1761738375.646000,8.5,-19561.2,-326.02,395,397,-5,-3,,,1.001999855,-0.001999855,
274,1761738376.656500,1761738376.646500,10,-19560.2,-326,394,397,-6,-3,,,1.005500078,-0.005500078,
275,1761738377.662000,1761738377.650000,12,-19559.2,-325.99,392,397,-8,-3,,,1.002000093,-0.002000093,
276,1761738378.663500,1761738378.645000,18.5,-19558.2,-325.97,393,399,-7,-1,,,1.00549984,-0.00549984,
277,1761738379.648500,1761738379.649500,1,-19557.2,-325.95,394,397,-6,-3,,,1.00150013,-0.00150013,
278,1761738380.653000,1761738380.649000,4,-19556.2,-325.94,393,397,-7,-3,,,0.984999895,0.015000105,
279,1761738381.658500,1761738381.646000,12.5,-19555.2,-325.92,391,399,-9,-1,,,1.004500151,-0.004500151,
280,1761738382.664000,1761738382.645500,18.5,-19554.2,-325.9,392,399,-8,-1,,,1.00549984,-0.00549984,
281,1761738383.668000,1761738383.650000,18,-19553.2,-325.89,392,397,-8,-3,,,1.005500078,-0.005500078,
282,1761738384.669500,1761738384.645000,24.5,-19552.2,-325.87,392,400,-8,0,,,1.003999949,-0.003999949,
283,1761738385.652000,1761738385.652000,0,-19551.2,-325.85,391,397,-9,-3,,,1.00150013,-0.00150013,
284,1761738386.657000,1761738386.649500,7.5,-19550.2,-325.84,390,398,-10,-2,,,0.982499838,0.017500162,
285,1761738387.659000,1761738387.651500,7.5,-19549.2,-325.82,392,397,-8,-3,,,1.005000114,-0.005000114,
286,1761738388.664500,1761738388.649500,15,-19548.2,-325.8,394,398,-6,-2,,,1.001999855,-0.001999855,
287,1761738389.665000,1761738389.649000,16,-19547.2,-325.79,394,398,-6,-2,,,1.005500078,-0.005500078,
288,1761738390.669500,1761738390.646500,23,-19546.2,-325.77,393,399,-7,-1,,,1.000499964,-0.000499964,
289,1761738391.654500,1761738391.648500,6,-19545.2,-325.75,391,399,-9,-1,,,1.004500151,-0.004500151,
290,1761738392.659000,1761738392.651500,7.5,-19544.2,-325.74,392,398,-8,-2,,,0.984999895,0.015000105,
291,1761738393.662000,1761738393.651000,11,-19543.2,-325.72,394,398,-6,-2,,,1.004499912,-0.004499912,
292,1761738394.665000,1761738394.655500,9.5,-19542.2,-325.7,394,397,-6,-3,,,1.003000021,-0.003000021,
293,1761738395.674500,1761738395.650000,24.5,-19541.2,-325.69,391,399,-9,-1,,,1.003000021,-0.003000021,
294,1761738396.669000,1761738396.650000,19,-19540.2,-325.67,394,399,-6,-1,,,1.009500027,-0.009500027,
295,1761738397.656500,1761738397.652000,4.5,-19539.2,-325.65,394,398,-6,-2,,,0.994499922,0.005500078,
296,1761738398.658500,1761738398.654000,4.5,-19538.2,-325.64,395,397,-5,-3,,,0.987500191,0.012499809,
297,1761738399.663000,1761738399.653500,9.5,-19537.2,-325.62,393,398,-7,-2,,,1.001999855,-0.001999855,
298,1761738400.663500,1761738400.659000,4.5,-19536.2,-325.6,395,396,-5,-4,,,1.004500151,-0.004500151,
299,1761738401.670500,1761738401.653500,17,-19535.2,-325.59,394,398,-6,-2,,,1.000499964,-0.000499964,
300,1761738402.672500,1761738402.651000,21.5,-19534.2,-325.57,393,399,-7,-1,,,1.006999969,-0.006999969,
301,1761738403.657500,1761738403.655500,2,-19533.2,-325.55,395,398,-5,-2,,,1.001999855,-0.001999855,
302,1761738404.663000,1761738404.657500,5.5,-19532.2,-325.54,393,397,-7,-3,,,0.985000134,0.014999866,
303,1761738405.664000,1761738405.655500,8.5,-19531.2,-325.52,393,398,-7,-2,,,1.005500078,-0.005500078,
304,1761738406.668500,1761738406.658500,10,-19530.2,-325.5,393,398,-7,-2,,,1.000999928,-0.000999928,
305,1761738407.674000,1761738407.660500,13.5,-19529.2,-325.49,393,397,-7,-3,,,1.004499912,-0.004499912,
306,1761738408.673500,1761738408.655500,18,-19528.2,-325.47,393,399,-7,-1,,,1.005500078,-0.005500078,
307,1761738409.658500,1761738409.660000,1.5,-19527.2,-325.45,393,397,-7,-3,,,0.999500036,0.000499964,
308,1761738410.662000,1761738410.658500,3.5,-19526.2,-325.44,395,398,-5,-2,,,0.984999895,0.015000105,
309,1761738411.671000,1761738411.658000,13,-19525.2,-325.42,392,398,-8,-2,,,1.003499985,-0.003499985,
310,1761738412.675500,1761738412.661000,14.5,-19524.2,-325.4,391,397,-9,-3,,,1.009000063,-0.009000063,
311,1761738413.671000,1761738413.658000,13,-19523.2,-325.39,395,399,-5,-1,,,1.004499912,-0.004499912,
312,1761738414.675500,1761738414.658000,17.5,-19522.2,-325.37,394,399,-6,-1,,,0.995500088,0.004499912,
313,1761738415.663000,1761738415.663500,0.5,-19521.2,-325.35,391,397,-9,-3,,,1.004499912,-0.004499912,
314,1761738416.667500,1761738416.663000,4.5,-19520.2,-325.34,392,396,-8,-4,,,0.987500191,0.012499809,
315,1761738417.670500,1761738417.661500,9,-19519.2,-325.32,392,396,-8,-4,,,1.004499912,-0.004499912,
316,1761738418.678500,1761738418.661000,17.5,-19518.2,-325.3,392,399,-8,-1,,,1.003000021,-0.003000021,
317,1761738419.681500,1761738419.658000,23.5,-19517.2,-325.29,392,399,-8,-1,,,1.007999897,-0.007999897,
318,1761738420.679500,1761738420.658000,21.5,-19516.2,-325.27,393,400,-7,0,,,1.003000021,-0.003000021,
319,1761738421.664500,1761738421.662500,2,-19515.2,-325.25,392,398,-8,-2,,,0.998000145,0.001999855,
320,1761738422.671500,1761738422.664500,7,-19514.2,-325.24,391,397,-9,-3,,,0.984999895,0.015000105,
321,1761738423.678000,1761738423.660500,17.5,-19513.2,-325.22,390,399,-10,-1,,,1.006999969,-0.006999969,
322,1761738424.681000,1761738424.665000,16,-19512.2,-325.2,391,398,-9,-2,,,1.006500006,-0.006500006,
323,1761738425.680500,1761738425.667000,13.5,-19511.2,-325.19,393,397,-7,-3,,,1.003000021,-0.003000021,
324,1761738426.683500,1761738426.662000,21.5,-19510.2,-325.17,393,398,-7,-2,,,0.999500036,0.000499964,
325,1761738427.668500,1761738427.666500,2,-19509.2,-325.15,393,396,-7,-4,,,1.003000021,-0.003000021,
326,1761738428.675500,1761738428.666000,9.5,-19508.2,-325.14,392,398,-8,-2,,,0.984999895,0.015000105,
327,1761738429.677500,1761738429.664500,13,-19507.2,-325.12,392,399,-8,-1,,,1.006999969,-0.006999969,
328,1761738430.679500,1761738430.666500,13,-19506.2,-325.1,394,399,-6,-1,,,1.002000093,-0.002000093,
329,1761738431.687500,1761738431.663500,24,-19505.2,-325.09,392,399,-8,-1,,,1.002000093,-0.002000093,
330,1761738432.688000,1761738432.663500,24.5,-19504.2,-325.07,392,400,-8,0,,,1.007999897,-0.007999897,
331,1761738433.670500,1761738433.673000,2.5,-19503.2,-325.05,393,395,-7,-5,,,1.000499964,-0.000499964,
332,1761738434.678500,1761738434.669000,9.5,-19502.2,-325.04,392,397,-8,-3,,,0.982500076,0.017499924,
333,1761738435.681500,1761738435.672000,9.5,-19501.2,-325.02,392,397,-8,-3,,,1.007999897,-0.007999897,
334,1761738436.682000,1761738436.669000,13,-19500.2,-325,394,399,-6,-1,,,1.003000021,-0.003000021,
335,1761738437.687500,1761738437.667500,20,-19499.2,-324.99,392,399,-8,-1,,,1.000499964,-0.000499964,
336,1761738438.687000,1761738438.667500,19.5,-19498.2,-324.97,395,399,-5,-1,,,1.005500078,-0.005500078,
337,1761738439.677000,1761738439.672000,5,-19497.2,-324.95,392,397,-8,-3,,,0.999500036,0.000499964,
338,1761738440.685000,1761738440.671500,13.5,-19496.2,-324.94,390,399,-10,-1,,,0.99000001,0.00999999,
339,1761738441.687000,1761738441.673500,13.5,-19495.2,-324.92,390,398,-10,-2,,,1.007999897,-0.007999897,
340,1761738442.689000,1761738442.672000,17,-19494.2,-324.9,392,398,-8,-2,,,1.002000093,-0.002000093,
341,1761738443.693500,1761738443.671500,22,-19493.2,-324.89,392,401,-8,1,,,1.001999855,-0.001999855,
342,1761738444.676000,1761738444.676500,0.5,-19492.2,-324.87,392,398,-8,-2,,,1.004500151,-0.004500151,
343,1761738445.679500,1761738445.676000,3.5,-19491.2,-324.85,391,398,-9,-2,,,0.982500076,0.017499924,
344,1761738446.687500,1761738446.678000,9.5,-19490.2,-324.84,391,397,-9,-3,,,1.003499985,-0.003499985,
345,1761738447.687000,1761738447.676500,10.5,-19489.2,-324.82,392,398,-8,-2,,,1.007999897,-0.007999897,
346,1761738448.691500,1761738448.676000,15.5,-19488.2,-324.8,393,398,-7,-2,,,0.999500036,0.000499964,
347,1761738449.691000,1761738449.673000,18,-19487.2,-324.79,393,400,-7,0,,,1.004499912,-0.004499912,
348,1761738450.676000,1761738450.675500,0.5,-19486.2,-324.77,392,398,-8,-2,,,0.999500036,0.000499964,
349,1761738451.681500,1761738451.677500,4,-19485.2,-324.75,392,397,-8,-3,,,0.985000134,0.014999866,
350,1761738452.684500,1761738452.677000,7.5,-19484.2,-324.74,392,398,-8,-2,,,1.00549984,-0.00549984,
351,1761738453.688000,1761738453.680500,7.5,-19483.2,-324.72,394,397,-6,-3,,,1.003000021,-0.003000021,
352,1761738454.693500,1761738454.680000,13.5,-19482.2,-324.7,392,397,-8,-3,,,1.003499985,-0.003499985,
353,1761738455.693000,1761738455.677000,16,-19481.2,-324.69,393,400,-7,0,,,1.005500078,-0.005500078,
354,1761738456.678000,1761738456.679500,1.5,-19480.2,-324.67,393,398,-7,-2,,,0.999500036,0.000499964,
355,1761738457.685000,1761738457.681500,3.5,-19479.2,-324.65,393,398,-7,-2,,,0.984999895,0.015000105,
356,1761738458.689500,1761738458.678500,11,-19478.2,-324.64,392,398,-8,-2,,,1.006999969,-0.006999969,
357,1761738459.694000,1761738459.685500,8.5,-19477.2,-324.62,393,396,-7,-4,,,1.004500151,-0.004500151,
358,1761738460.697500,1761738460.682500,15,-19476.2,-324.6,392,397,-8,-3,,,1.004499912,-0.004499912,
359,1761738461.698000,1761738461.679500,18.5,-19475.2,-324.59,392,400,-8,0,,,1.003499985,-0.003499985,
360,1761738462.680500,1761738462.682000,1.5,-19474.2,-324.57,392,398,-8,-2,,,1.000499964,-0.000499964,
361,1761738463.687500,1761738463.681500,6,-19473.2,-324.55,392,398,-8,-2,,,0.982500076,0.017499924,
362,1761738464.690500,1761738464.682000,8.5,-19472.2,-324.54,393,398,-7,-2,,,1.006999969,-0.006999969,
363,1761738465.692500,1761738465.680500,12,-19471.2,-324.52,393,399,-7,-1,,,1.003000021,-0.003000021,
364,1761738466.700500,1761738466.681000,19.5,-19470.2,-324.5,392,399,-8,-1,,,1.002000093,-0.002000093,
365,1761738467.697500,1761738467.679000,18.5,-19469.2,-324.49,393,400,-7,0,,,1.007999897,-0.007999897,
366,1761738468.682500,1761738468.681500,1,-19468.2,-324.47,393,399,-7,-1,,,0.996999979,0.003000021,
367,1761738469.688000,1761738469.683500,4.5,-19467.2,-324.45,395,398,-5,-2,,,0.984999895,0.015000105,
368,1761738470.691500,1761738470.679500,12,-19466.2,-324.44,395,400,-5,0,,,1.005500078,-0.005500078,
369,1761738471.691000,1761738471.680500,10.5,-19465.2,-324.42,397,399,-3,-1,,,1.003499985,-0.003499985,
370,1761738472.694500,1761738472.677500,17,-19464.2,-324.4,395,400,-5,0,,,0.999500036,0.000499964,
371,1761738473.695500,1761738473.680000,15.5,-19463.2,-324.39,395,399,-5,-1,,,1.003499985,-0.003499985,
372,1761738474.685500,1761738474.681000,4.5,-19462.2,-324.37,393,400,-7,0,,,1.000999928,-0.000999928,
373,1761738475.690000,1761738475.688000,2,-19461.2,-324.35,392,397,-8,-3,,,0.99000001,0.00999999,
374,1761738476.693000,1761738476.686000,7,-19460.2,-324.34,393,398,-7,-2,,,1.004500151,-0.004500151,
375,1761738477.698500,1761738477.685500,13,-19459.2,-324.32,393,398,-7,-2,,,1.003000021,-0.003000021,
376,1761738478.703000,1761738478.683500,19.5,-19458.2,-324.3,393,398,-7,-2,,,1.00549984,-0.00549984,
377,1761738479.706000,1761738479.681000,25,-19457.1,-324.29,393,399,-7,-1,,,1.004500151,-0.004500151,
378,1761738480.691000,1761738480.686500,4.5,-19456.2,-324.27,392,398,-8,-2,,,1.003000021,-0.003000021,
379,1761738481.694000,1761738481.687500,6.5,-19455.2,-324.25,392,396,-8,-4,,,0.984999895,0.015000105,
380,1761738482.698500,1761738482.692000,6.5,-19454.2,-324.24,392,396,-8,-4,,,1.003000021,-0.003000021,
381,1761738483.700500,1761738483.692500,8,-19453.2,-324.22,393,396,-7,-4,,,1.004499912,-0.004499912,
382,1761738484.707500,1761738484.687000,20.5,-19452.1,-324.2,391,398,-9,-2,,,1.002000093,-0.002000093,
383,1761738485.708000,1761738485.684500,23.5,-19451.1,-324.19,393,399,-7,-1,,,1.006999969,-0.006999969,
384,1761738486.693000,1761738486.689000,4,-19450.2,-324.17,392,398,-8,-2,,,1.000499964,-0.000499964,
385,1761738487.696000,1761738487.689500,6.5,-19449.2,-324.15,392,397,-8,-3,,,0.985000134,0.014999866,
386,1761738488.700000,1761738488.689000,11,-19448.2,-324.14,392,397,-8,-3,,,1.003000021,-0.003000021,
387,1761738489.704000,1761738489.686000,18,-19447.1,-324.12,392,398,-8,-2,,,1.003999949,-0.003999949,
388,1761738490.711500,1761738490.683000,28.5,-19446.1,-324.1,391,400,-9,0,,,1.003999949,-0.003999949,
389,1761738491.713000,1761738491.685500,27.5,-19445.1,-324.09,391,399,-9,-1,,,1.007499933,-0.007499933,
390,1761738492.693000,1761738492.691000,2,-19444.2,-324.07,393,397,-7,-3,,,1.00150013,-0.00150013,
391,1761738493.693500,1761738493.693000,0.5,-19443.2,-324.05,394,397,-6,-3,,,0.980000019,0.019999981,
392,1761738494.704000,1761738494.688500,15.5,-19442.1,-324.04,391,399,-9,-1,,,1.000499964,-0.000499964,
393,1761738495.707000,1761738495.689000,18,-19441.1,-324.02,392,398,-8,-2,,,1.010499954,-0.010499954,
394,1761738496.710000,1761738496.688500,21.5,-19440.1,-324,391,399,-9,-1,,,1.003000021,-0.003000021,
395,1761738497.714500,1761738497.688500,26,-19439.1,-323.99,393,399,-7,-1,,,1.003000021,-0.003000021,
396,1761738498.699500,1761738498.691500,8,-19438.2,-323.97,391,398,-9,-2,,,1.004499912,-0.004499912,
397,1761738499.698500,1761738499.696000,2.5,-19437.2,-323.95,393,397,-7,-3,,,0.985000134,0.014999866,
398,1761738500.705500,1761738500.693000,12.5,-19436.1,-323.94,392,398,-8,-2,,,0.998999834,0.001000166,
399,1761738501.709000,1761738501.691000,18,-19435.1,-323.92,392,399,-8,-1,,,1.006999969,-0.006999969,
400,1761738502.708500,1761738502.689500,19,-19434.1,-323.9,393,400,-7,0,,,1.003500223,-0.003500223,
401,1761738503.693500,1761738503.692000,1.5,-19433.2,-323.89,392,399,-8,-1,,,0.999499798,0.000500202,
402,1761738504.695500,1761738504.696500,1,-19432.2,-323.87,393,395,-7,-5,,,0.985000134,0.014999866,
403,1761738505.702500,1761738505.696000,6.5,-19431.2,-323.85,393,397,-7,-3,,,1.001999855,-0.001999855,
404,1761738506.709000,1761738506.693000,16,-19430.1,-323.84,392,398,-8,-2,,,1.007000208,-0.007000208,
405,1761738507.714500,1761738507.700000,14.5,-19429.1,-323.82,391,396,-9,-4,,,1.006500006,-0.006500006,
406,1761738508.709000,1761738508.691000,18,-19428.1,-323.8,394,401,-6,1,,,1.00549984,-0.00549984,
407,1761738509.696500,1761738509.696000,0.5,-19427.2,-323.79,393,398,-7,-2,,,0.99450016,0.00549984,
408,1761738510.702000,1761738510.698000,4,-19426.2,-323.77,392,398,-8,-2,,,0.987499952,0.012500048,
409,1761738511.706500,1761738511.696000,10.5,-19425.1,-323.75,392,399,-8,-1,,,1.00549984,-0.00549984,
410,1761738512.711000,1761738512.695500,15.5,-19424.1,-323.74,392,399,-8,-1,,,1.004500151,-0.004500151,
411,1761738513.715500,1761738513.700000,15.5,-19423.1,-323.72,391,397,-9,-3,,,1.004499912,-0.004499912,
412,1761738514.717500,1761738514.698500,19,-19422.1,-323.7,392,399,-8,-1,,,1.004500151,-0.004500151,
413,1761738515.700000,1761738515.698500,1.5,-19421.2,-323.69,392,398,-8,-2,,,1.001999855,-0.001999855,
414,1761738516.704500,1761738516.700500,4,-19420.1,-323.67,392,398,-8,-2,,,0.982500076,0.017499924,
415,1761738517.710000,1761738517.700000,10,-19419.1,-323.65,392,398,-8,-2,,,1.004499912,-0.004499912,
416,1761738518.712000,1761738518.702000,10,-19418.1,-323.64,393,396,-7,-4,,,1.005500078,-0.005500078,
417,1761738519.717500,1761738519.700500,17,-19417.1,-323.62,392,397,-8,-3,,,1.001999855,-0.001999855,
418,1761738520.719500,1761738520.695000,24.5,-19416.1,-323.6,392,400,-8,0,,,1.005500078,-0.005500078,
419,1761738521.702000,1761738521.697500,4.5,-19415.2,-323.59,393,400,-7,0,,,1.002000093,-0.002000093,
420,1761738522.704000,1761738522.700500,3.5,-19414.1,-323.57,393,398,-7,-2,,,0.982499838,0.017500162,
421,1761738523.709500,1761738523.701000,8.5,-19413.1,-323.55,393,399,-7,-1,,,1.002000093,-0.002000093,
422,1761738524.714000,1761738524.702000,12,-19412.1,-323.54,393,398,-7,-2,,,1.005500078,-0.005500078,
423,1761738525.718500,1761738525.704000,14.5,-19411.1,-323.52,392,397,-8,-3,,,1.004499912,-0.004499912,
424,1761738526.723000,1761738526.704500,18.5,-19410.1,-323.5,392,399,-8,-1,,,1.004499912,-0.004499912,
425,1761738527.705500,1761738527.704500,1,-19409.1,-323.49,390,396,-10,-4,,,1.004500151,-0.004500151,
426,1761738528.708500,1761738528.700000,8.5,-19408.1,-323.47,392,399,-8,-1,,,0.982499838,0.017500162,
427,1761738529.716500,1761738529.700500,16,-19407.1,-323.45,390,399,-10,-1,,,1.003000021,-0.003000021,
428,1761738530.716000,1761738530.703500,12.5,-19406.1,-323.44,393,398,-7,-2,,,1.008000135,-0.008000135,
429,1761738531.726500,1761738531.706500,20,-19405.1,-323.42,390,397,-10,-3,,,0.999500036,0.000499964,
430,1761738532.722000,1761738532.704500,17.5,-19404.1,-323.4,393,400,-7,0,,,1.010499954,-0.010499954,
431,1761738533.707000,1761738533.707000,0,-19403.1,-323.39,392,397,-8,-3,,,0.995499849,0.004500151,
432,1761738534.711500,1761738534.703500,8,-19402.1,-323.37,392,400,-8,0,,,0.985000134,0.014999866,
433,1761738535.714500,1761738535.708000,6.5,-19401.1,-323.35,393,398,-7,-2,,,1.004499912,-0.004499912,
434,1761738536.721500,1761738536.709000,12.5,-19400.1,-323.34,392,397,-8,-3,,,1.003000021,-0.003000021,
435,1761738537.722000,1761738537.708500,13.5,-19399.1,-323.32,393,397,-7,-3,,,1.006999969,-0.006999969,
436,1761738538.724000,1761738538.703000,21,-19398.1,-323.3,393,400,-7,0,,,1.000499964,-0.000499964,
437,1761738539.709000,1761738539.705500,3.5,-19397.1,-323.29,394,397,-6,-3,,,1.002000093,-0.002000093,
438,1761738540.713000,1761738540.705000,8,-19396.1,-323.27,393,399,-7,-1,,,0.985000134,0.014999866,
439,1761738541.716000,1761738541.708500,7.5,-19395.1,-323.25,393,398,-7,-2,,,1.003999949,-0.003999949,
440,1761738542.720500,1761738542.708000,12.5,-19394.1,-323.24,393,398,-7,-2,,,1.003000021,-0.003000021,
441,1761738543.723500,1761738543.710000,13.5,-19393.1,-323.22,394,397,-6,-3,,,1.004499912,-0.004499912,
442,1761738544.728000,1761738544.705000,23,-19392.1,-323.2,393,400,-7,0,,,1.003000021,-0.003000021,
443,1761738545.713000,1761738545.709500,3.5,-19391.1,-323.19,390,398,-10,-2,,,1.004499912,-0.004499912,
444,1761738546.715500,1761738546.708000,7.5,-19390.1,-323.17,391,399,-9,-1,,,0.985000134,0.014999866,
445,1761738547.721000,1761738547.710000,11,-19389.1,-323.15,391,398,-9,-2,,,1.002500057,-0.002500057,
446,1761738548.726500,1761738548.712000,14.5,-19388.1,-323.14,390,398,-10,-2,,,1.00549984,-0.00549984,
447,1761738549.727000,1761738549.711500,15.5,-19387.1,-323.12,393,398,-7,-2,,,1.005500078,-0.005500078,
448,1761738550.733500,1761738550.709000,24.5,-19386.1,-323.1,392,399,-8,-1,,,1.000499964,-0.000499964,
449,1761738551.716000,1761738551.709500,6.5,-19385.1,-323.09,394,398,-6,-2,,,1.006500006,-0.006500006,
450,1761738552.718000,1761738552.711500,6.5,-19384.1,-323.07,394,398,-6,-2,,,0.982500076,0.017499924,
451,1761738553.722500,1761738553.716000,6.5,-19383.1,-323.05,391,397,-9,-3,,,1.001999855,-0.001999855,
452,1761738554.727000,1761738554.711500,15.5,-19382.1,-323.04,391,398,-9,-2,,,1.004500151,-0.004500151,
453,1761738555.730000,1761738555.712000,18,-19381.1,-323.02,393,398,-7,-2,,,1.004499912,-0.004499912,
454,1761738556.740500,1761738556.709500,31,-19380.1,-323,391,399,-9,-1,,,1.003000021,-0.003000021,
455,1761738557.720500,1761738557.714000,6.5,-19379.1,-322.99,392,398,-8,-2,,,1.010499954,-0.010499954,
456,1761738558.719000,1761738558.716000,3,-19378.1,-322.97,392,397,-8,-3,,,0.980000019,0.019999981,
457,1761738559.726000,1761738559.715500,10.5,-19377.1,-322.95,391,398,-9,-2,,,0.998500109,0.001499891,
458,1761738560.730500,1761738560.715000,15.5,-19376.1,-322.94,391,398,-9,-2,,,1.006999969,-0.006999969,
459,1761738561.733500,1761738561.718000,15.5,-19375.1,-322.92,392,397,-8,-3,,,1.004499912,-0.004499912,
460,1761738562.738000,1761738562.713000,25,-19374.1,-322.9,392,398,-8,-2,,,1.003000021,-0.003000021,
461,1761738563.720500,1761738563.715000,5.5,-19373.1,-322.89,392,398,-8,-2,,,1.004499912,-0.004499912,
462,1761738564.721500,1761738564.717000,4.5,-19372.1,-322.87,391,398,-9,-2,,,0.982500076,0.017499924,
463,1761738565.729500,1761738565.716500,13,-19371.1,-322.85,393,399,-7,-1,,,1.000999928,-0.000999928,
464,1761738566.733500,1761738566.721000,12.5,-19370.1,-322.84,391,397,-9,-3,,,1.008000135,-0.008000135,
465,1761738567.735500,1761738567.720500,15,-19369.1,-322.82,392,398,-8,-2,,,1.003999949,-0.003999949,
466,1761738568.737500,1761738568.718000,19.5,-19368.1,-322.8,392,397,-8,-3,,,1.002000093,-0.002000093,
467,1761738569.720000,1761738569.717500,2.5,-19367.1,-322.79,394,398,-6,-2,,,1.001999855,-0.001999855,
468,1761738570.727000,1761738570.719500,7.5,-19366.1,-322.77,391,397,-9,-3,,,0.982500076,0.017499924,
469,1761738571.729000,1761738571.719000,10,-19365.1,-322.75,393,397,-7,-3,,,1.006999969,-0.006999969,
470,1761738572.731000,1761738572.722000,9,-19364.1,-322.74,393,397,-7,-3,,,1.002000093,-0.002000093,
471,1761738573.736500,1761738573.719000,17.5,-19363.1,-322.72,393,398,-7,-2,,,1.001999855,-0.001999855,
472,1761738574.741000,1761738574.716500,24.5,-19362.1,-322.7,392,399,-8,-1,,,1.005500078,-0.005500078,
473,1761738575.723500,1761738575.723500,0,-19361.1,-322.69,392,397,-8,-3,,,1.004499912,-0.004499912,
474,1761738576.729000,1761738576.723000,6,-19360.1,-322.67,393,397,-7,-3,,,0.982500076,0.017499924,
475,1761738577.733500,1761738577.726000,7.5,-19359.1,-322.65,393,396,-7,-4,,,1.005500078,-0.005500078,
476,1761738578.738000,1761738578.722000,16,-19358.1,-322.64,391,397,-9,-3,,,1.004499912,-0.004499912,
477,1761738579.740000,1761738579.716500,23.5,-19357.1,-322.62,393,400,-7,0,,,1.004499912,-0.004499912,
478,1761738580.744500,1761738580.719000,25.5,-19356.1,-322.6,391,400,-9,0,,,1.002000093,-0.002000093,
479,1761738581.724500,1761738581.721000,3.5,-19355.1,-322.59,391,398,-9,-2,,,1.004499912,-0.004499912,
480,1761738582.729000,1761738582.725500,3.5,-19354.1,-322.57,393,397,-7,-3,,,0.980000019,0.019999981,
481,1761738583.733500,1761738583.725000,8.5,-19353.1,-322.55,392,397,-8,-3,,,1.004500151,-0.004500151,
482,1761738584.738000,1761738584.724500,13.5,-19352.1,-322.54,392,397,-8,-3,,,1.004499912,-0.004499912,
483,1761738585.742500,1761738585.721500,21,-19351.1,-322.52,393,398,-7,-2,,,1.004499912,-0.004499912,
484,1761738586.738000,1761738586.719000,19,-19350.1,-322.5,395,400,-5,0,,,1.004500151,-0.004500151,
485,1761738587.728000,1761738587.723500,4.5,-19349.1,-322.49,394,399,-6,-1,,,0.995499849,0.004500151,
486,1761738588.729000,1761738588.722000,7,-19348.1,-322.47,395,400,-5,0,,,0.99000001,0.00999999,
487,1761738589.735000,1761738589.724000,11,-19347.1,-322.45,394,399,-6,-1,,,1.001000166,-0.001000166,
488,1761738590.737000,1761738590.718500,18.5,-19346.1,-322.44,394,400,-6,0,,,1.005999804,-0.005999804,
489,1761738591.745500,1761738591.721000,24.5,-19345.1,-322.42,392,400,-8,0,,,1.002000093,-0.002000093,
490,1761738592.728000,1761738592.725500,2.5,-19344.1,-322.4,391,399,-9,-1,,,1.008500099,-0.008500099,
491,1761738593.732500,1761738593.730000,2.5,-19343.1,-322.39,392,397,-8,-3,,,0.982499838,0.017500162,
492,1761738594.738000,1761738594.728000,10,-19342.1,-322.37,390,397,-10,-3,,,1.004500151,-0.004500151,
493,1761738595.743500,1761738595.730000,13.5,-19341.1,-322.35,393,397,-7,-3,,,1.00549984,-0.00549984,
494,1761738596.742000,1761738596.729500,12.5,-19340.1,-322.34,393,397,-7,-3,,,1.005500078,-0.005500078,
495,1761738597.744000,1761738597.724500,19.5,-19339.1,-322.32,393,399,-7,-1,,,0.998500109,0.001499891,
496,1761738598.729000,1761738598.725500,3.5,-19338.1,-322.3,392,399,-8,-1,,,1.001999855,-0.001999855,
497,1761738599.733500,1761738599.727500,6,-19337.1,-322.29,392,399,-8,-1,,,0.985000134,0.014999866,
498,1761738600.738000,1761738600.732000,6,-19336.1,-322.27,392,397,-8,-3,,,1.004499912,-0.004499912,
499,1761738601.742500,1761738601.731500,11,-19335.1,-322.25,393,397,-7,-3,,,1.004499912,-0.004499912,
500,1761738602.744500,1761738602.727500,17,-19334.1,-322.24,393,398,-7,-2,,,1.004500151,-0.004500151,
501,1761738603.750500,1761738603.725000,25.5,-19333.1,-322.22,392,401,-8,1,,,1.001999855,-0.001999855,
502,1761738604.733000,1761738604.734500,1.5,-19332.1,-322.2,394,397,-6,-3,,,1.006000042,-0.006000042,
503,1761738605.738500,1761738605.736500,2,-19331.1,-322.19,393,396,-7,-4,,,0.982500076,0.017499924,
504,1761738606.743000,1761738606.738500,4.5,-19330.1,-322.17,392,395,-8,-5,,,1.005500078,-0.005500078,
505,1761738607.746000,1761738607.733000,13,-19329.1,-322.15,393,397,-7,-3,,,1.004499912,-0.004499912,
506,1761738608.748000,1761738608.728500,19.5,-19328.1,-322.14,392,399,-8,-1,,,1.003000021,-0.003000021,
507,1761738609.747500,1761738609.728500,19,-19327.1,-322.12,394,399,-6,-1,,,1.001999855,-0.001999855,
508,1761738610.735000,1761738610.734000,1,-19326.1,-322.1,393,397,-7,-3,,,0.999500036,0.000499964,
509,1761738611.735500,1761738611.732500,3,-19325.1,-322.09,392,397,-8,-3,,,0.987499952,0.012500048,
510,1761738612.742500,1761738612.732000,10.5,-19324.1,-322.07,393,398,-7,-2,,,1.000500202,-0.000500202,
511,1761738613.748500,1761738613.732500,16,-19323.1,-322.05,393,398,-7,-2,,,1.006999969,-0.006999969,
512,1761738614.749000,1761738614.735500,13.5,-19322.1,-322.04,393,397,-7,-3,,,1.006000042,-0.006000042,
513,1761738615.754500,1761738615.730500,24,-19321.1,-322.02,391,399,-9,-1,,,1.000499964,-0.000499964,
514,1761738616.734500,1761738616.734000,0.5,-19320.1,-322,393,398,-7,-2,,,1.00549984,-0.00549984,
515,1761738617.740500,1761738617.733500,7,-19319.1,-321.99,394,399,-6,-1,,,0.980000019,0.019999981,
516,1761738618.745000,1761738618.735500,9.5,-19318.1,-321.97,391,398,-9,-2,,,1.006000042,-0.006000042,
517,1761738619.752000,1761738619.740000,12,-19317.1,-321.95,392,397,-8,-3,,,1.004499912,-0.004499912,
518,1761738620.751500,1761738620.737000,14.5,-19316.1,-321.94,393,397,-7,-3,,,1.007000208,-0.007000208,
519,1761738621.756000,1761738621.732000,24,-19315.1,-321.92,392,400,-8,0,,,0.999499798,0.000500202,
520,1761738622.738500,1761738622.736500,2,-19314.1,-321.9,391,398,-9,-2,,,1.004500151,-0.004500151,
521,1761738623.745500,1761738623.736000,9.5,-19313.1,-321.89,392,399,-8,-1,,,0.982500076,0.017499924,
522,1761738624.750000,1761738624.738000,12,-19312.1,-321.87,390,398,-10,-2,,,1.006999969,-0.006999969,
523,1761738625.753000,1761738625.737500,15.5,-19311.1,-321.85,391,398,-9,-2,,,1.004499912,-0.004499912,
524,1761738626.761000,1761738626.739500,21.5,-19310.1,-321.83,391,397,-9,-3,,,1.003000021,-0.003000021,
525,1761738627.760500,1761738627.734500,26,-19309.1,-321.82,391,400,-9,0,,,1.007999897,-0.007999897,
526,1761738628.740500,1761738628.737500,3,-19308.1,-321.8,392,397,-8,-3,,,0.999500036,0.000499964,
527,1761738629.746000,1761738629.739500,6.5,-19307.1,-321.79,390,397,-10,-3,,,0.980000019,0.019999981,
528,1761738630.749000,1761738630.740000,9,-19306.1,-321.77,392,398,-8,-2,,,1.005500078,-0.005500078,
529,1761738631.756000,1761738631.739500,16.5,-19305.1,-321.75,391,397,-9,-3,,,1.003000021,-0.003000021,
530,1761738632.761500,1761738632.736500,25,-19304.1,-321.73,391,398,-9,-2,,,1.006999969,-0.006999969,
531,1761738633.758500,1761738633.734000,24.5,-19303.1,-321.72,393,401,-7,1,,,1.00549984,-0.00549984,
532,1761738634.743500,1761738634.742000,1.5,-19302.1,-321.7,391,398,-9,-2,,,0.997000217,0.002999783,
533,1761738635.749000,1761738635.741500,7.5,-19301.1,-321.69,392,397,-8,-3,,,0.984999895,0.015000105,
534,1761738636.754500,1761738636.739500,15,-19300.1,-321.67,391,397,-9,-3,,,1.005500078,-0.005500078,
535,1761738637.757500,1761738637.739000,18.5,-19299.1,-321.65,391,399,-9,-1,,,1.00549984,-0.00549984,
536,1761738638.764000,1761738638.740000,24,-19298.1,-321.63,391,398,-9,-2,,,1.003000021,-0.003000021,
537,1761738639.762000,1761738639.737500,24.5,-19297.1,-321.62,393,399,-7,-1,,,1.006500006,-0.006500006,
538,1761738640.747000,1761738640.744500,2.5,-19296.1,-321.6,392,397,-8,-3,,,0.998000145,0.001999855,
539,1761738641.751500,1761738641.744000,7.5,-19295.1,-321.59,391,397,-9,-3,,,0.984999895,0.015000105,
540,1761738642.757000,1761738642.741000,16,-19294.1,-321.57,390,398,-10,-2,,,1.004499912,-0.004499912,
541,1761738643.759000,1761738643.741500,17.5,-19293.1,-321.55,392,398,-8,-2,,,1.005500078,-0.005500078,
542,1761738644.766000,1761738644.744500,21.5,-19292.1,-321.53,390,397,-10,-3,,,1.002000093,-0.002000093,
543,1761738645.759000,1761738645.739500,19.5,-19291.1,-321.52,394,399,-6,-1,,,1.006999969,-0.006999969,
544,1761738646.746500,1761738646.741500,5,-19290.1,-321.5,391,399,-9,-1,,,0.993000031,0.006999969,
545,1761738647.753000,1761738647.746000,7,-19289.1,-321.49,391,397,-9,-3,,,0.987499952,0.012500048,
546,1761738648.760000,1761738648.743000,17,-19288.1,-321.47,389,399,-11,-1,,,1.006500006,-0.006500006,
547,1761738649.764500,1761738649.745000,19.5,-19287.1,-321.45,391,398,-9,-2,,,1.006999969,-0.006999969,
548,1761738650.769000,1761738650.747000,22,-19286.1,-321.43,391,397,-9,-3,,,1.004499912,-0.004499912,
549,1761738651.771000,1761738651.742000,29,-19285.1,-321.42,391,399,-9,-1,,,1.004500151,-0.004500151,
550,1761738652.751000,1761738652.747500,3.5,-19284.1,-321.4,391,398,-9,-2,,,1.001999855,-0.001999855,
551,1761738653.758000,1761738653.750500,7.5,-19283.1,-321.38,390,397,-10,-3,,,0.980000019,0.019999981,
552,1761738654.758500,1761738654.748500,10,-19282.1,-321.37,393,397,-7,-3,,,1.006999969,-0.006999969,
553,1761738655.763000,1761738655.748000,15,-19281.1,-321.35,391,397,-9,-3,,,1.000500202,-0.000500202,
554,1761738656.769500,1761738656.743500,26,-19280.1,-321.33,392,399,-8,-1,,,1.004499912,-0.004499912,
555,1761738657.774000,1761738657.743500,30.5,-19279.1,-321.32,391,398,-9,-2,,,1.006500006,-0.006500006,
556,1761738658.754000,1761738658.745500,8.5,-19278.1,-321.3,394,400,-6,0,,,1.004499912,-0.004499912,
557,1761738659.758500,1761738659.753500,5,-19277.1,-321.28,391,396,-9,-4,,,0.980000019,0.019999981,
558,1761738660.761500,1761738660.749500,12,-19276.1,-321.27,392,398,-8,-2,,,1.004500151,-0.004500151,
559,1761738661.767000,1761738661.754000,13,-19275.1,-321.25,393,397,-7,-3,,,1.002999783,-0.002999783,
560,1761738662.766500,1761738662.751000,15.5,-19274.1,-321.23,393,398,-7,-2,,,1.005500078,-0.005500078,
561,1761738663.769500,1761738663.748500,21,-19273.1,-321.22,393,398,-7,-2,,,0.999500036,0.000499964,
562,1761738664.754500,1761738664.755500,1,-19272.1,-321.2,393,396,-7,-4,,,1.003000021,-0.003000021,
563,1761738665.765000,1761738665.755000,10,-19271.1,-321.18,390,397,-10,-3,,,0.984999895,0.015000105,
564,1761738666.764500,1761738666.754500,10,-19270.1,-321.17,393,397,-7,-3,,,1.010500193,-0.010500193,
565,1761738667.765500,1761738667.750500,15,-19269.1,-321.15,393,399,-7,-1,,,0.999499798,0.000500202,
566,1761738668.771500,1761738668.752500,19,-19268.1,-321.13,393,398,-7,-2,,,1.001000166,-0.001000166,
567,1761738669.777000,1761738669.750000,27,-19267.1,-321.12,392,399,-8,-1,,,1.006000042,-0.006000042,
568,1761738670.759500,1761738670.758000,1.5,-19266.1,-321.1,391,396,-9,-4,,,1.00549984,-0.00549984,
569,1761738671.764000,1761738671.755000,9,-19265.1,-321.08,391,398,-9,-2,,,0.982500076,0.017499924,
570,1761738672.771000,1761738672.754500,16.5,-19264.1,-321.07,390,398,-10,-2,,,1.004499912,-0.004499912,
571,1761738673.776500,1761738673.752500,24,-19263.1,-321.05,390,399,-10,-1,,,1.006999969,-0.006999969,
572,1761738674.778500,1761738674.753000,25.5,-19262.1,-321.03,391,399,-9,-1,,,1.005500078,-0.005500078,
573,1761738675.776500,1761738675.753000,23.5,-19261.1,-321.02,393,399,-7,-1,,,1.002000093,-0.002000093,
574,1761738676.761500,1761738676.755000,6.5,-19260.1,-321,392,398,-8,-2,,,0.997999907,0.002000093,
575,1761738677.766000,1761738677.754500,11.5,-19259.1,-320.98,391,399,-9,-1,,,0.984999895,0.015000105,
576,1761738678.770500,1761738678.756500,14,-19258.1,-320.97,392,398,-8,-2,,,1.004500151,-0.004500151,
577,1761738679.773500,1761738679.758500,15,-19257.1,-320.95,392,397,-8,-3,,,1.004499912,-0.004499912,
578,1761738680.778000,1761738680.758000,20,-19256.1,-320.93,391,399,-9,-1,,,1.003000021,-0.003000021,
579,1761738681.778500,1761738681.758000,20.5,-19255.1,-320.92,395,397,-5,-3,,,1.004500151,-0.004500151,
580,1761738682.768500,1761738682.759000,9.5,-19254.1,-320.9,392,400,-8,0,,,1.000499964,-0.000499964,
581,1761738683.773000,1761738683.763500,9.5,-19253.1,-320.88,392,398,-8,-2,,,0.99000001,0.00999999,
582,1761738684.777500,1761738684.765500,12,-19252.1,-320.87,391,397,-9,-3,,,1.004499912,-0.004499912,
583,1761738685.784500,1761738685.765000,19.5,-19251.1,-320.85,390,397,-10,-3,,,1.004499912,-0.004499912,
584,1761738686.776500,1761738686.764500,12,-19250.1,-320.83,394,399,-6,-1,,,1.006999969,-0.006999969,
585,1761738687.764000,1761738687.764500,0.5,-19249.1,-320.82,394,398,-6,-2,,,0.992000103,0.007999897,
586,1761738688.768500,1761738688.764000,4.5,-19248.1,-320.8,392,398,-8,-2,,,0.987499952,0.012500048,
587,1761738689.778000,1761738689.766000,12,-19247.1,-320.78,390,398,-10,-2,,,1.004500151,-0.004500151,
588,1761738690.780000,1761738690.765500,14.5,-19246.1,-320.77,392,398,-8,-2,,,1.009500027,-0.009500027,
589,1761738691.782000,1761738691.767500,14.5,-19245.1,-320.75,392,397,-8,-3,,,1.001999855,-0.001999855,
590,1761738692.787500,1761738692.762000,25.5,-19244.1,-320.73,391,400,-9,0,,,1.002000093,-0.002000093,
591,1761738693.767500,1761738693.764500,3,-19243.1,-320.72,392,399,-8,-1,,,1.00549984,-0.00549984,
592,1761738694.771000,1761738694.769000,2,-19242.1,-320.7,392,396,-8,-4,,,0.980000019,0.019999981,
593,1761738695.778000,1761738695.769500,8.5,-19241.1,-320.68,391,397,-9,-3,,,1.003499985,-0.003499985,
594,1761738696.780000,1761738696.770000,10,-19240.1,-320.67,392,397,-8,-3,,,1.007000208,-0.007000208,
595,1761738697.787000,1761738697.768500,18.5,-19239.1,-320.65,392,397,-8,-3,,,1.001999855,-0.001999855,
596,1761738698.788000,1761738698.765500,22.5,-19238.1,-320.63,392,400,-8,0,,,1.006999969,-0.006999969,
597,1761738699.770500,1761738699.768000,2.5,-19237.1,-320.62,392,398,-8,-2,,,1.001000166,-0.001000166,
598,1761738700.773500,1761738700.768500,5,-19236.1,-320.6,391,398,-9,-2,,,0.982499838,0.017500162,
599,1761738701.779000,1761738701.771500,7.5,-19235.1,-320.58,392,397,-8,-3,,,1.003000021,-0.003000021,
600,1761738702.782500,1761738702.774500,8,-19234.1,-320.57,391,396,-9,-4,,,1.005500078,-0.005500078,
601,1761738703.787000,1761738703.766500,20.5,-19233.1,-320.55,392,399,-8,-1,,,1.003499985,-0.003499985,
602,1761738704.784000,1761738704.766500,17.5,-19232.1,-320.53,394,400,-6,0,,,1.004499912,-0.004499912,
603,1761738705.771500,1761738705.767500,4,-19231.1,-320.52,395,399,-5,-1,,,0.996999979,0.003000021,
604,1761738706.776000,1761738706.767000,9,-19230.1,-320.5,396,400,-4,0,,,0.987500191,0.012499809,
605,1761738707.777000,1761738707.769000,8,-19229.1,-320.48,395,400,-5,0,,,1.004499912,-0.004499912,
606,1761738708.781500,1761738708.765000,16.5,-19228.1,-320.47,395,400,-5,0,,,1.000999928,-0.000999928,
607,1761738709.788500,1761738709.767500,21,-19227.1,-320.45,393,400,-7,0,,,1.004500151,-0.004500151,
608,1761738710.773500,1761738710.775500,2,-19226.1,-320.43,391,397,-9,-3,,,1.006999969,-0.006999969,
609,1761738711.780500,1761738711.776500,4,-19225.1,-320.42,391,396,-9,-4,,,0.984999895,0.015000105,
610,1761738712.786500,1761738712.773500,13,-19224.1,-320.4,389,397,-11,-3,,,1.006999969,-0.006999969,
611,1761738713.789500,1761738713.773000,16.5,-19223.1,-320.38,390,398,-10,-2,,,1.006000042,-0.006000042,
612,1761738714.793500,1761738714.770000,23.5,-19222.1,-320.37,391,399,-9,-1,,,1.003000021,-0.003000021,
613,1761738715.799000,1761738715.770000,29,-19221.1,-320.35,390,399,-10,-1,,,1.003999949,-0.003999949,
614,1761738716.776500,1761738716.776000,0.5,-19220.1,-320.33,391,397,-9,-3,,,1.005500078,-0.005500078,
615,1761738717.782000,1761738717.775500,6.5,-19219.1,-320.32,391,397,-9,-3,,,0.977499962,0.022500038,
616,1761738718.786000,1761738718.772500,13.5,-19218.1,-320.3,391,398,-9,-2,,,1.005500078,-0.005500078,
617,1761738719.789000,1761738719.777000,12,-19217.1,-320.28,391,397,-9,-3,,,1.003999949,-0.003999949,
618,1761738720.796000,1761738720.774000,22,-19216.1,-320.27,391,399,-9,-1,,,1.003000021,-0.003000021,
619,1761738721.795000,1761738721.774000,21,-19215.1,-320.25,391,399,-9,-1,,,1.006999969,-0.006999969,
620,1761738722.775000,1761738722.776000,1,-19214.1,-320.23,393,398,-7,-2,,,0.999000072,0.000999928,
621,1761738723.780500,1761738723.774500,6,-19213.1,-320.22,392,398,-8,-2,,,0.980000019,0.019999981,
622,1761738724.787000,1761738724.779000,8,-19212.1,-320.2,393,396,-7,-4,,,1.00549984,-0.00549984,
623,1761738725.792500,1761738725.778500,14,-19211.1,-320.18,392,397,-8,-3,,,1.006500006,-0.006500006,
624,1761738726.794500,1761738726.772500,22,-19210.1,-320.17,393,399,-7,-1,,,1.005500078,-0.005500078,
625,1761738727.795000,1761738727.772500,22.5,-19209.1,-320.15,392,400,-8,0,,,1.002000093,-0.002000093,
626,1761738728.777500,1761738728.778500,1,-19208.1,-320.13,393,398,-7,-2,,,1.000499964,-0.000499964,
627,1761738729.785500,1761738729.783000,2.5,-19207.1,-320.12,390,395,-10,-5,,,0.982499838,0.017500162,
628,1761738730.791000,1761738730.780000,11,-19206.1,-320.1,391,397,-9,-3,,,1.008000135,-0.008000135,
629,1761738731.795500,1761738731.779500,16,-19205.1,-320.08,391,397,-9,-3,,,1.00549984,-0.00549984,
630,1761738732.798500,1761738732.777500,21,-19204.1,-320.07,392,398,-8,-2,,,1.004500151,-0.004500151,
631,1761738733.797000,1761738733.775000,22,-19203.1,-320.05,392,399,-8,-1,,,1.003000021,-0.003000021,
632,1761738734.779500,1761738734.778000,1.5,-19202.1,-320.03,392,399,-8,-1,,,0.99849987,0.00150013,
633,1761738735.784000,1761738735.783500,0.5,-19201.1,-320.02,392,397,-8,-3,,,0.982500076,0.017499924,
634,1761738736.794500,1761738736.782000,12.5,-19200.1,-320,391,397,-9,-3,,,1.004499912,-0.004499912,
635,1761738737.796500,1761738737.780000,16.5,-19199.1,-319.98,392,398,-8,-2,,,1.010500193,-0.010500193,
636,1761738738.798000,1761738738.779500,18.5,-19198.1,-319.97,393,399,-7,-1,,,1.001999855,-0.001999855,
637,1761738739.802500,1761738739.779500,23,-19197.1,-319.95,392,398,-8,-2,,,1.00150013,-0.00150013,
638,1761738740.785000,1761738740.782500,2.5,-19196.1,-319.93,392,398,-8,-2,,,1.004499912,-0.004499912,
639,1761738741.787000,1761738741.782000,5,-19195.1,-319.92,393,398,-7,-2,,,0.982500076,0.017499924,
640,1761738742.796500,1761738742.784000,12.5,-19194.1,-319.9,392,398,-8,-2,,,1.001999855,-0.001999855,
641,1761738743.798000,1761738743.786000,12,-19193.1,-319.88,394,397,-6,-3,,,1.009500027,-0.009500027,
642,1761738744.803500,1761738744.785500,18,-19192.1,-319.87,392,397,-8,-3,,,1.00150013,-0.00150013,
643,1761738745.803000,1761738745.780500,22.5,-19191.1,-319.85,393,400,-7,0,,,1.00549984,-0.00549984,
644,1761738746.788000,1761738746.787500,0.5,-19190.1,-319.83,393,397,-7,-3,,,0.999500036,0.000499964,
645,1761738747.792500,1761738747.789500,3,-19189.1,-319.82,393,396,-7,-4,,,0.985000134,0.014999866,
646,1761738748.798000,1761738748.786500,11.5,-19188.1,-319.8,392,397,-8,-3,,,1.004499912,-0.004499912,
647,1761738749.802500,1761738749.787000,15.5,-19187.1,-319.78,392,398,-8,-2,,,1.005500078,-0.005500078,
648,1761738750.805500,1761738750.789000,16.5,-19186,-319.77,392,397,-8,-3,,,1.004499912,-0.004499912,
649,1761738751.811500,1761738751.784000,27.5,-19185,-319.75,391,399,-9,-1,,,1.003000021,-0.003000021,
650,1761738752.791500,1761738752.789500,2,-19184.1,-319.73,390,397,-10,-3,,,1.006000042,-0.006000042,
651,1761738753.794500,1761738753.789000,5.5,-19183.1,-319.72,393,397,-7,-3,,,0.980000019,0.019999981,
652,1761738754.799000,1761738754.788500,10.5,-19182.1,-319.7,392,398,-8,-2,,,1.003000021,-0.003000021,
653,1761738755.807000,1761738755.789500,17.5,-19181,-319.68,391,398,-9,-2,,,1.004499912,-0.004499912,
654,1761738756.814000,1761738756.790000,24,-19180,-319.67,389,398,-11,-2,,,1.007999897,-0.007999897,
655,1761738757.814500,1761738757.787500,27,-19179,-319.65,390,399,-10,-1,,,1.006999969,-0.006999969,
656,1761738758.792000,1761738758.791000,1,-19178.1,-319.63,391,397,-9,-3,,,1.000500202,-0.000500202,
657,1761738759.801000,1761738759.788000,13,-19177.1,-319.62,390,398,-10,-2,,,0.977499962,0.022500038,
658,1761738760.802500,1761738760.792500,10,-19176.1,-319.6,391,397,-9,-3,,,1.009000063,-0.009000063,
659,1761738761.804500,1761738761.790500,14,-19175,-319.58,391,397,-9,-3,,,1.001499891,-0.001499891,
660,1761738762.807500,1761738762.790000,17.5,-19174,-319.57,393,397,-7,-3,,,1.002000093,-0.002000093,
661,1761738763.812000,1761738763.785000,27,-19173,-319.55,392,401,-8,1,,,1.002999783,-0.002999783,
662,1761738764.794500,1761738764.793000,1.5,-19172.1,-319.53,392,397,-8,-3,,,1.004500151,-0.004500151,
663,1761738765.800000,1761738765.792500,7.5,-19171.1,-319.52,391,397,-9,-3,,,0.982500076,0.017499924,
664,1761738766.802000,1761738766.792000,10,-19170.1,-319.5,392,398,-8,-2,,,1.00549984,-0.00549984,
665,1761738767.809000,1761738767.795000,14,-19169,-319.48,392,398,-8,-2,,,1.002000093,-0.002000093,
666,1761738768.812000,1761738768.794500,17.5,-19168,-319.47,393,397,-7,-3,,,1.006999969,-0.006999969,
667,1761738769.811500,1761738769.789500,22,-19167,-319.45,393,400,-7,0,,,1.003000021,-0.003000021,
668,1761738770.796500,1761738770.794000,2.5,-19166.1,-319.43,391,398,-9,-2,,,0.999500036,0.000499964,
669,1761738771.798500,1761738771.797000,1.5,-19165.1,-319.42,393,397,-7,-3,,,0.984999895,0.015000105,
670,1761738772.808000,1761738772.796000,12,-19164,-319.4,390,398,-10,-2,,,1.002000093,-0.002000093,
671,1761738773.812500,1761738773.795500,17,-19163,-319.38,391,398,-9,-2,,,1.009500027,-0.009500027,
672,1761738774.810500,1761738774.793500,17,-19162,-319.37,393,399,-7,-1,,,1.004499912,-0.004499912,
673,1761738775.814500,1761738775.793500,21,-19161,-319.35,393,399,-7,-1,,,0.997999907,0.002000093,
674,1761738776.799500,1761738776.804000,4.5,-19160.1,-319.33,393,395,-7,-5,,,1.004000187,-0.004000187,
675,1761738777.803500,1761738777.797000,6.5,-19159.1,-319.32,392,397,-8,-3,,,0.984999895,0.015000105,
676,1761738778.811500,1761738778.794000,17.5,-19158,-319.3,392,400,-8,0,,,1.003999949,-0.003999949,
677,1761738779.817000,1761738779.798500,18.5,-19157,-319.28,390,398,-10,-2,,,1.008000135,-0.008000135,
678,1761738780.821000,1761738780.796500,24.5,-19156,-319.27,391,398,-9,-2,,,1.00549984,-0.00549984,
679,1761738781.824500,1761738781.794000,30.5,-19155,-319.25,391,400,-9,0,,,1.004000187,-0.004000187,
680,1761738782.804500,1761738782.796000,8.5,-19154,-319.23,391,398,-9,-2,,,1.003499985,-0.003499985,
681,1761738783.803500,1761738783.800000,3.5,-19153.1,-319.22,393,397,-7,-3,,,0.980000019,0.019999981,
682,1761738784.814000,1761738784.798500,15.5,-19152,-319.2,390,397,-10,-3,,,0.998999834,0.001000166,
683,1761738785.814500,1761738785.801500,13,-19151,-319.18,393,397,-7,-3,,,1.010499954,-0.010499954,
684,1761738786.821500,1761738786.796000,25.5,-19150,-319.17,392,399,-8,-1,,,1.000500202,-0.000500202,
685,1761738787.826000,1761738787.796000,30,-19149,-319.15,391,398,-9,-2,,,1.006999969,-0.006999969,
686,1761738788.806000,1761738788.798000,8,-19148,-319.13,391,400,-9,0,,,1.004499912,-0.004499912,
687,1761738789.811500,1761738789.805000,6.5,-19147,-319.12,393,397,-7,-3,,,0.980000019,0.019999981,
688,1761738790.814500,1761738790.804500,10,-19146,-319.1,392,397,-8,-3,,,1.005500078,-0.005500078,
689,1761738791.819000,1761738791.805500,13.5,-19145,-319.08,393,396,-7,-4,,,1.003000021,-0.003000021,
690,1761738792.821000,1761738792.797500,23.5,-19144,-319.07,393,400,-7,0,,,1.004499912,-0.004499912,
691,1761738793.825000,1761738793.800000,25,-19143,-319.05,393,400,-7,0,,,1.002000093,-0.002000093,
692,1761738794.810000,1761738794.807000,3,-19142,-319.03,392,397,-8,-3,,,1.003999949,-0.003999949,
693,1761738795.814500,1761738795.806500,8,-19141,-319.02,391,396,-9,-4,,,0.984999895,0.015000105,
694,1761738796.820000,1761738796.806000,14,-19140,-319,390,397,-10,-3,,,1.004500151,-0.004500151,
695,1761738797.824500,1761738797.809000,15.5,-19139,-318.98,391,397,-9,-3,,,1.00549984,-0.00549984,
696,1761738798.826500,1761738798.804500,22,-19138,-318.97,391,398,-9,-2,,,1.004500151,-0.004500151,
697,1761738799.826000,1761738799.802000,24,-19137,-318.95,394,400,-6,0,,,1.001999855,-0.001999855,
698,1761738800.813500,1761738800.806500,7,-19136,-318.93,391,398,-9,-2,,,0.999500036,0.000499964,
699,1761738801.816000,1761738801.806000,10,-19135,-318.92,392,397,-8,-3,,,0.987499952,0.012500048,
700,1761738802.823000,1761738802.805500,17.5,-19134,-318.9,391,399,-9,-1,,,1.002500057,-0.002500057,
701,1761738803.828500,1761738803.807500,21,-19133,-318.88,391,398,-9,-2,,,1.006999969,-0.006999969,
702,1761738804.830500,1761738804.805500,25,-19132,-318.87,391,400,-9,0,,,1.005500078,-0.005500078,
703,1761738805.810500,1761738805.808000,2.5,-19131,-318.85,390,398,-10,-2,,,1.001999855,-0.001999855,
704,1761738806.816000,1761738806.807500,8.5,-19130,-318.83,392,398,-8,-2,,,0.980000019,0.019999981,
705,1761738807.820500,1761738807.808000,12.5,-19129,-318.82,391,398,-9,-2,,,1.005500078,-0.005500078,
706,1761738808.823500,1761738808.810000,13.5,-19128,-318.8,392,398,-8,-2,,,1.004499912,-0.004499912,
707,1761738809.829000,1761738809.813000,16,-19127,-318.78,392,397,-8,-3,,,1.003000021,-0.003000021,
708,1761738810.831500,1761738810.812500,19,-19126,-318.77,392,399,-8,-1,,,1.005500078,-0.005500078,
709,1761738811.814000,1761738811.812500,1.5,-19125,-318.75,392,397,-8,-3,,,1.002500057,-0.002500057,
710,1761738812.818500,1761738812.815500,3,-19124,-318.73,392,396,-8,-4,,,0.982499838,0.017500162,
711,1761738813.823500,1761738813.812500,11,-19123,-318.72,390,397,-10,-3,,,1.004500151,-0.004500151,
712,1761738814.826500,1761738814.815500,11,-19122,-318.7,391,397,-9,-3,,,1.004999876,-0.004999876,
713,1761738815.828500,1761738815.818500,10,-19121,-318.68,393,396,-7,-4,,,1.003000021,-0.003000021,
714,1761738816.835500,1761738816.813000,22.5,-19120,-318.67,391,400,-9,0,,,1.002000093,-0.002000093,
715,1761738817.815500,1761738817.815500,0,-19119,-318.65,391,397,-9,-3,,,1.006999969,-0.006999969,
716,1761738818.821000,1761738818.815000,6,-19118,-318.63,391,397,-9,-3,,,0.980000019,0.019999981,
717,1761738819.824000,1761738819.813500,10.5,-19117,-318.62,392,398,-8,-2,,,1.005500078,-0.005500078,
718,1761738820.831000,1761738820.815500,15.5,-19116,-318.6,390,398,-10,-2,,,1.002999783,-0.002999783,
719,1761738821.830500,1761738821.817500,13,-19115,-318.58,392,397,-8,-3,,,1.007000208,-0.007000208,
720,1761738822.834500,1761738822.812000,22.5,-19114,-318.57,392,400,-8,0,,,0.999499798,0.000500202,
721,1761738823.817000,1761738823.814500,2.5,-19113,-318.55,390,398,-10,-2,,,1.004000187,-0.004000187,
722,1761738824.822500,1761738824.814000,8.5,-19112,-318.53,391,398,-9,-2,,,0.982499838,0.017500162,
723,1761738825.829500,1761738825.813000,16.5,-19111,-318.52,392,400,-8,0,,,1.005500078,-0.005500078,
724,1761738826.832500,1761738826.818500,14,-19110,-318.5,391,398,-9,-2,,,1.006999969,-0.006999969,
725,1761738827.835500,1761738827.818000,17.5,-19109,-318.48,391,398,-9,-2,,,1.003000021,-0.003000021,
726,1761738828.837500,1761738828.817500,20,-19108,-318.47,392,400,-8,0,,,1.003000021,-0.003000021,
727,1761738829.820000,1761738829.820000,0,-19107,-318.45,390,397,-10,-3,,,1.002000093,-0.002000093,
728,1761738830.825500,1761738830.819500,6,-19106,-318.43,390,397,-10,-3,,,0.982499838,0.017500162,
729,1761738831.826000,1761738831.818000,8,-19105,-318.42,393,398,-7,-2,,,1.005500078,-0.005500078,
730,1761738832.833000,1761738832.818500,14.5,-19104,-318.4,393,398,-7,-2,,,1.000499964,-0.000499964,
731,1761738833.837500,1761738833.820500,17,-19103,-318.38,392,398,-8,-2,,,1.006999969,-0.006999969,
732,1761738834.838000,1761738834.817500,20.5,-19102,-318.37,393,400,-7,0,,,1.004500151,-0.004500151,
733,1761738835.823000,1761738835.820000,3,-19101,-318.35,391,398,-9,-2,,,1.000499964,-0.000499964,
734,1761738836.827500,1761738836.822000,5.5,-19100,-318.33,394,398,-6,-2,,,0.984999895,0.015000105,
735,1761738837.833000,1761738837.822500,10.5,-19099,-318.32,392,398,-8,-2,,,1.004500151,-0.004500151,
736,1761738838.841000,1761738838.823500,17.5,-19098,-318.3,390,397,-10,-3,,,1.00549984,-0.00549984,
737,1761738839.843000,1761738839.821500,21.5,-19097,-318.28,391,398,-9,-2,,,1.008000135,-0.008000135,
738,1761738840.843500,1761738840.821000,22.5,-19096,-318.27,392,399,-8,-1,,,1.001999855,-0.001999855,
739,1761738841.826000,1761738841.821000,5,-19095,-318.25,391,398,-9,-2,,,1.000499964,-0.000499964,
740,1761738842.828000,1761738842.819500,8.5,-19094,-318.23,393,399,-7,-1,,,0.982500076,0.017499924,
741,1761738843.833500,1761738843.825000,8.5,-19093,-318.22,394,397,-6,-3,,,1.002000093,-0.002000093,
742,1761738844.839000,1761738844.825500,13.5,-19092,-318.2,392,397,-8,-3,,,1.00549984,-0.00549984,
743,1761738845.840500,1761738845.826000,14.5,-19091,-318.18,393,398,-7,-2,,,1.005500078,-0.005500078,
744,1761738846.851000,1761738846.823500,27.5,-19090,-318.17,390,396,-10,-4,,,1.00150013,-0.00150013,
745,1761738847.828500,1761738847.824000,4.5,-19089,-318.15,390,398,-10,-2,,,1.010499954,-0.010499954,
746,1761738848.834000,1761738848.827000,7,-19088,-318.13,390,398,-10,-2,,,0.977499962,0.022500038,
747,1761738849.838500,1761738849.826500,12,-19087,-318.12,392,398,-8,-2,,,1.005500078,-0.005500078,
748,1761738850.843000,1761738850.827500,15.5,-19086,-318.1,391,397,-9,-3,,,1.004499912,-0.004499912,
749,1761738851.851000,1761738851.827000,24,-19085,-318.08,391,397,-9,-3,,,1.004499912,-0.004499912,
750,1761738852.850500,1761738852.822000,28.5,-19084,-318.07,391,399,-9,-1,,,1.008000135,-0.008000135,
751,1761738853.830500,1761738853.826500,4,-19083,-318.05,396,398,-4,-2,,,0.999500036,0.000499964,
752,1761738854.834000,1761738854.826000,8,-19082,-318.03,395,400,-5,0,,,0.979999781,0.020000219,
753,1761738855.841000,1761738855.827000,14,-19081,-318.02,393,399,-7,-1,,,1.003500223,-0.003500223,
754,1761738856.837000,1761738856.823000,14,-19080,-318,396,400,-4,0,,,1.006999969,-0.006999969,
755,1761738857.843000,1761738857.825500,17.5,-19079,-317.98,394,400,-6,0,,,0.995999813,0.004000187,
756,1761738858.830500,1761738858.830000,0.5,-19078,-317.97,391,399,-9,-1,,,1.006000042,-0.006000042,
757,1761738859.837500,1761738859.829500,8,-19077,-317.95,391,398,-9,-2,,,0.987499952,0.012500048,
758,1761738860.839500,1761738860.830000,9.5,-19076,-317.93,391,398,-9,-2,,,1.007000208,-0.007000208,
759,1761738861.846500,1761738861.829500,17,-19075,-317.92,390,398,-10,-2,,,1.001999855,-0.001999855,
760,1761738862.853500,1761738862.829000,24.5,-19074,-317.9,390,399,-10,-1,,,1.006999969,-0.006999969,
761,1761738863.856500,1761738863.829000,27.5,-19073,-317.88,391,398,-9,-2,,,1.006999969,-0.006999969,
762,1761738864.836500,1761738864.833500,3,-19072,-317.87,390,397,-10,-3,,,1.003000021,-0.003000021,
763,1761738865.840000,1761738865.835500,4.5,-19071,-317.85,392,397,-8,-3,,,0.980000019,0.019999981,
764,1761738866.844500,1761738866.836000,8.5,-19070,-317.83,391,397,-9,-3,,,1.003499985,-0.003499985,
765,1761738867.846500,1761738867.833000,13.5,-19069,-317.82,392,397,-8,-3,,,1.004500151,-0.004500151,
766,1761738868.854500,1761738868.832500,22,-19068,-317.8,391,399,-9,-1,,,1.001999855,-0.001999855,
767,1761738869.859000,1761738869.832500,26.5,-19067,-317.78,390,399,-10,-1,,,1.008000135,-0.008000135,
768,1761738870.836500,1761738870.835500,1,-19066,-317.77,393,397,-7,-3,,,1.004499912,-0.004499912,
769,1761738871.842000,1761738871.835000,7,-19065,-317.75,392,398,-8,-2,,,0.977499962,0.022500038,
770,1761738872.845000,1761738872.836000,9,-19064,-317.73,393,397,-7,-3,,,1.005500078,-0.005500078,
771,1761738873.847000,1761738873.840500,6.5,-19063,-317.72,393,397,-7,-3,,,1.003000021,-0.003000021,
772,1761738874.855500,1761738874.835000,20.5,-19062,-317.7,392,398,-8,-2,,,1.001999855,-0.001999855,
773,1761738875.850000,1761738875.832500,17.5,-19061,-317.68,395,399,-5,-1,,,1.008500099,-0.008500099,
774,1761738876.840000,1761738876.837000,3,-19060,-317.67,391,398,-9,-2,,,0.994499922,0.005500078,
775,1761738877.844500,1761738877.839000,5.5,-19059,-317.65,391,396,-9,-4,,,0.99000001,0.00999999,
776,1761738878.849000,1761738878.838500,10.5,-19058,-317.63,391,397,-9,-3,,,1.004500151,-0.004500151,
777,1761738879.851000,1761738879.838000,13,-19057,-317.62,392,397,-8,-3,,,1.004499912,-0.004499912,
778,1761738880.855500,1761738880.833500,22,-19056,-317.6,392,400,-8,0,,,1.002000093,-0.002000093,
779,1761738881.856000,1761738881.836000,20,-19055,-317.58,393,398,-7,-2,,,1.004499912,-0.004499912,
780,1761738882.841000,1761738882.838000,3,-19054,-317.57,393,398,-7,-2,,,1.000499964,-0.000499964,
781,1761738883.845500,1761738883.836500,9,-19053,-317.55,393,398,-7,-2,,,0.985000134,0.014999866,
782,1761738884.852500,1761738884.841000,11.5,-19052,-317.53,391,397,-9,-3,,,1.004499912,-0.004499912,
783,1761738885.859500,1761738885.841500,18,-19051,-317.52,391,398,-9,-2,,,1.006999969,-0.006999969,
784,1761738886.864000,1761738886.840000,24,-19050,-317.5,390,398,-10,-2,,,1.006999969,-0.006999969,
785,1761738887.866000,1761738887.837500,28.5,-19049,-317.48,390,399,-10,-1,,,1.004500151,-0.004500151,
786,1761738888.843500,1761738888.843000,0.5,-19048,-317.47,391,397,-9,-3,,,1.001999855,-0.001999855,
787,1761738889.851500,1761738889.843500,8,-19047,-317.45,391,397,-9,-3,,,0.977499962,0.022500038,
788,1761738890.853500,1761738890.842000,11.5,-19046,-317.43,393,397,-7,-3,,,1.008000135,-0.008000135,
789,1761738891.859000,1761738891.842500,16.5,-19045,-317.42,392,397,-8,-3,,,1.001999855,-0.001999855,
790,1761738892.863500,1761738892.844500,19,-19044,-317.4,391,397,-9,-3,,,1.005500078,-0.005500078,
791,1761738893.868000,1761738893.839500,28.5,-19043,-317.38,390,399,-10,-1,,,1.004500151,-0.004500151,
792,1761738894.845500,1761738894.845000,0.5,-19042,-317.37,391,397,-9,-3,,,1.004499912,-0.004499912,
793,1761738895.852500,1761738895.844000,8.5,-19041,-317.35,389,398,-11,-2,,,0.977499962,0.022500038,
794,1761738896.854500,1761738896.841000,13.5,-19040,-317.33,390,399,-10,-1,,,1.006999969,-0.006999969,
795,1761738897.864000,1761738897.845500,18.5,-19039,-317.32,390,397,-10,-3,,,1.002000093,-0.002000093,
796,1761738898.862000,1761738898.840000,22,-19038,-317.3,393,399,-7,-1,,,1.009500027,-0.009500027,
797,1761738899.865000,1761738899.840000,25,-19037,-317.28,392,399,-8,-1,,,0.997999907,0.002000093,
798,1761738900.847500,1761738900.841500,6,-19036,-317.27,392,399,-8,-1,,,1.003000021,-0.003000021,
799,1761738901.852000,1761738901.846000,6,-19035,-317.25,394,397,-6,-3,,,0.982500076,0.017499924,
800,1761738902.857500,1761738902.845500,12,-19034,-317.23,392,398,-8,-2,,,1.004499912,-0.004499912,
801,1761738903.859500,1761738903.850000,9.5,-19033,-317.22,392,396,-8,-4,,,1.005500078,-0.005500078,
802,1761738904.867500,1761738904.844500,23,-19032,-317.2,392,398,-8,-2,,,1.001999855,-0.001999855,
803,1761738905.870500,1761738905.842000,28.5,-19031,-317.18,391,400,-9,0,,,1.008000135,-0.008000135,
804,1761738906.850500,1761738906.848000,2.5,-19030,-317.17,392,398,-8,-2,,,1.003000021,-0.003000021,
805,1761738907.856000,1761738907.850000,6,-19029,-317.15,393,397,-7,-3,,,0.980000019,0.019999981,
806,1761738908.859000,1761738908.847000,12,-19028,-317.13,392,398,-8,-2,,,1.00549984,-0.00549984,
807,1761738909.862000,1761738909.853000,9,-19027,-317.12,393,395,-7,-5,,,1.003000021,-0.003000021,
808,1761738910.868500,1761738910.842500,26,-19026,-317.1,392,399,-8,-1,,,1.003000021,-0.003000021,
809,1761738911.866500,1761738911.842500,24,-19025,-317.08,393,399,-7,-1,,,1.006500006,-0.006500006,
810,1761738912.851500,1761738912.849500,2,-19024,-317.07,391,397,-9,-3,,,0.997999907,0.002000093,
811,1761738913.854500,1761738913.849000,5.5,-19023,-317.05,392,398,-8,-2,,,0.985000134,0.014999866,
812,1761738914.861500,1761738914.851000,10.5,-19022,-317.03,392,396,-8,-4,,,1.003000021,-0.003000021,
813,1761738915.864500,1761738915.851500,13,-19021,-317.02,392,397,-8,-3,,,1.006999969,-0.006999969,
814,1761738916.869000,1761738916.847000,22,-19020,-317,391,399,-9,-1,,,1.003000021,-0.003000021,
815,1761738917.872000,1761738917.847000,25,-19019,-316.98,393,399,-7,-1,,,1.004499912,-0.004499912,
816,1761738918.857000,1761738918.854000,3,-19018,-316.97,392,398,-8,-2,,,1.003000021,-0.003000021,
817,1761738919.865000,1761738919.854500,10.5,-19017,-316.95,390,398,-10,-2,,,0.985000134,0.014999866,
818,1761738920.870500,1761738920.854000,16.5,-19016,-316.93,389,397,-11,-3,,,1.007999897,-0.007999897,
819,1761738921.872500,1761738921.853500,19,-19015,-316.92,391,398,-9,-2,,,1.005500078,-0.005500078,
820,1761738922.878000,1761738922.850500,27.5,-19014,-316.9,390,400,-10,0,,,1.001999855,-0.001999855,
821,1761738923.855500,1761738923.853000,2.5,-19013,-316.88,390,399,-10,-1,,,1.005500078,-0.005500078,
822,1761738924.862500,1761738924.855000,7.5,-19012,-316.87,390,398,-10,-2,,,0.977499962,0.022500038,
823,1761738925.866000,1761738925.858000,8,-19011,-316.85,391,397,-9,-3,,,1.006999969,-0.006999969,
824,1761738926.870500,1761738926.858500,12,-19010,-316.83,392,397,-8,-3,,,1.003499985,-0.003499985,
825,1761738927.874500,1761738927.858000,16.5,-19009,-316.82,390,397,-10,-3,,,1.004500151,-0.004500151,
826,1761738928.874000,1761738928.855000,19,-19008,-316.8,393,400,-7,0,,,1.003999949,-0.003999949,
827,1761738929.859000,1761738929.857500,1.5,-19007,-316.78,393,398,-7,-2,,,0.999500036,0.000499964,
828,1761738930.863500,1761738930.859500,4,-19006,-316.77,391,398,-9,-2,,,0.984999895,0.015000105,
829,1761738931.867000,1761738931.860500,6.5,-19005,-316.75,391,397,-9,-3,,,1.004500151,-0.004500151,
830,1761738932.870500,1761738932.860000,10.5,-19004,-316.73,391,397,-9,-3,,,1.003499985,-0.003499985,
831,1761738933.878500,1761738933.858500,20,-19003,-316.72,391,398,-9,-2,,,1.003499985,-0.003499985,
832,1761738934.875500,1761738934.859000,16.5,-19002,-316.7,392,400,-8,0,,,1.007999897,-0.007999897,
833,1761738935.858000,1761738935.861500,3.5,-19001,-316.68,391,397,-9,-3,,,0.996999979,0.003000021,
834,1761738936.867500,1761738936.860000,7.5,-19000,-316.67,391,398,-9,-2,,,0.982500076,0.017499924,
835,1761738937.870500,1761738937.864500,6,-18999,-316.65,391,396,-9,-4,,,1.009500027,-0.009500027,
836,1761738938.876500,1761738938.859000,17.5,-18998,-316.63,392,398,-8,-2,,,1.003000021,-0.003000021,
837,1761738939.882000,1761738939.863500,18.5,-18997,-316.62,390,396,-10,-4,,,1.005999804,-0.005999804,
838,1761738940.880500,1761738940.858000,22.5,-18996,-316.6,391,400,-9,0,,,1.005500078,-0.005500078,
839,1761738941.860500,1761738941.860500,0,-18995,-316.58,391,399,-9,-1,,,0.998500109,0.001499891,
840,1761738942.867500,1761738942.862500,5,-18994,-316.57,390,397,-10,-3,,,0.980000019,0.019999981,
841,1761738943.872000,1761738943.863000,9,-18993,-316.55,392,398,-8,-2,,,1.006999969,-0.006999969,
842,1761738944.874000,1761738944.863500,10.5,-18992,-316.53,393,397,-7,-3,,,1.004499912,-0.004499912,
843,1761738945.876000,1761738945.860500,15.5,-18991,-316.52,394,399,-6,-1,,,1.002000093,-0.002000093,
844,1761738946.883000,1761738946.857500,25.5,-18990,-316.5,391,400,-9,0,,,1.001999855,-0.001999855,
845,1761738947.863000,1761738947.860000,3,-18989,-316.48,393,400,-7,0,,,1.006999969,-0.006999969,
846,1761738948.870000,1761738948.867000,3,-18988,-316.47,390,397,-10,-3,,,0.980000019,0.019999981,
847,1761738949.877000,1761738949.865500,11.5,-18987,-316.45,391,397,-9,-3,,,1.006999969,-0.006999969,
848,1761738950.882500,1761738950.867500,15,-18986,-316.43,390,397,-10,-3,,,1.007000208,-0.007000208,
849,1761738951.883500,1761738951.867000,16.5,-18985,-316.42,392,398,-8,-2,,,1.00549984,-0.00549984,
850,1761738952.886500,1761738952.868000,18.5,-18984,-316.4,391,400,-9,0,,,1.001000166,-0.001000166,
851,1761738953.866500,1761738953.870500,4,-18983,-316.38,390,395,-10,-5,,,1.002999783,-0.002999783,
852,1761738954.872000,1761738954.867500,4.5,-18982,-316.37,393,397,-7,-3,,,0.980000019,0.019999981,
853,1761738955.872500,1761738955.864500,8,-18981,-316.35,394,398,-6,-2,,,1.005500078,-0.005500078,
854,1761738956.880000,1761738956.866500,13.5,-18980,-316.33,392,398,-8,-2,,,1.000499964,-0.000499964,
855,1761738957.882000,1761738957.864500,17.5,-18979,-316.32,393,398,-7,-2,,,1.007500172,-0.007500172,
856,1761738958.886500,1761738958.862000,24.5,-18978,-316.3,392,400,-8,0,,,1.001999855,-0.001999855,
857,1761738959.869000,1761738959.869000,0,-18977,-316.28,393,396,-7,-4,,,1.004499912,-0.004499912,
858,1761738960.873500,1761738960.873500,0,-18976,-316.27,391,396,-9,-4,,,0.982500076,0.017499924,
859,1761738961.879000,1761738961.870500,8.5,-18975,-316.25,392,396,-8,-4,,,1.004500151,-0.004500151,
860,1761738962.882500,1761738962.867500,15,-18974,-316.23,393,398,-7,-2,,,1.00549984,-0.00549984,
861,1761738963.890500,1761738963.869500,21,-18973,-316.22,391,397,-9,-3,,,1.003499985,-0.003499985,
862,1761738964.891000,1761738964.864500,26.5,-18972,-316.2,391,400,-9,0,,,1.008000135,-0.008000135,
863,1761738965.871000,1761738965.871500,0.5,-18971,-316.18,390,398,-10,-2,,,1.000499964,-0.000499964,
864,1761738966.879000,1761738966.871000,8,-18970,-316.17,392,398,-8,-2,,,0.980000019,0.019999981,
865,1761738967.881000,1761738967.871500,9.5,-18969,-316.15,392,397,-8,-3,,,1.007999897,-0.007999897,
866,1761738968.885500,1761738968.871000,14.5,-18968,-316.13,392,399,-8,-1,,,1.002000093,-0.002000093,
867,1761738969.890000,1761738969.870500,19.5,-18967,-316.12,392,398,-8,-2,,,1.004499912,-0.004499912,
868,1761738970.890500,1761738970.868000,22.5,-18966,-316.1,392,399,-8,-1,,,1.004500151,-0.004500151,
869,1761738971.873000,1761738971.873500,0.5,-18965,-316.08,394,398,-6,-2,,,1.000499964,-0.000499964,
870,1761738972.880000,1761738972.873000,7,-18964,-316.07,392,395,-8,-5,,,0.982499838,0.017500162,
871,1761738973.880500,1761738973.873500,7,-18963,-316.05,393,397,-7,-3,,,1.007000208,-0.007000208,
872,1761738974.891000,1761738974.870500,20.5,-18962,-316.03,390,400,-10,0,,,1.000499964,-0.000499964,
873,1761738975.896500,1761738975.871000,25.5,-18961,-316.02,390,399,-10,-1,,,1.010499954,-0.010499954,
874,1761738976.896000,1761738976.871000,25,-18960,-316,391,399,-9,-1,,,1.005500078,-0.005500078,
875,1761738977.876000,1761738977.874500,1.5,-18959,-315.98,393,397,-7,-3,,,0.999499798,0.000500202,
876,1761738978.884000,1761738978.874000,10,-18958,-315.97,390,398,-10,-2,,,0.980000019,0.019999981,
877,1761738979.888000,1761738979.877000,11,-18957,-315.95,391,397,-9,-3,,,1.008000135,-0.008000135,
878,1761738980.887500,1761738980.876500,11,-18956,-315.93,392,397,-8,-3,,,1.003999949,-0.003999949,
879,1761738981.900500,1761738981.874500,26,-18955,-315.92,390,398,-10,-2,,,0.999500036,0.000499964,
880,1761738982.895000,1761738982.872000,23,-18954,-315.9,392,400,-8,0,,,1.013000011,-0.013000011,
881,1761738983.877500,1761738983.879000,1.5,-18953,-315.88,391,396,-9,-4,,,0.994499922,0.005500078,
882,1761738984.883000,1761738984.878500,4.5,-18952,-315.87,393,397,-7,-3,,,0.982500076,0.017499924,
883,1761738985.887500,1761738985.878000,9.5,-18951,-315.85,391,397,-9,-3,,,1.00549984,-0.00549984,
884,1761738986.892000,1761738986.877500,14.5,-18950,-315.83,391,397,-9,-3,,,1.004500151,-0.004500151,
885,1761738987.900000,1761738987.874500,25.5,-18949,-315.82,391,398,-9,-2,,,1.004499912,-0.004499912,
886,1761738988.899500,1761738988.872000,27.5,-18948,-315.8,391,400,-9,0,,,1.008000135,-0.008000135,
887,1761738989.879500,1761738989.876500,3,-18947,-315.78,391,397,-9,-3,,,0.999499798,0.000500202,
888,1761738990.886500,1761738990.877000,9.5,-18946,-315.77,391,398,-9,-2,,,0.980000019,0.019999981,
889,1761738991.892000,1761738991.879000,13,-18945,-315.75,390,398,-10,-2,,,1.006999969,-0.006999969,
890,1761738992.896500,1761738992.878500,18,-18944,-315.73,391,398,-9,-2,,,1.005500078,-0.005500078,
891,1761738993.899500,1761738993.878000,21.5,-18943,-315.72,391,398,-9,-2,,,1.004500151,-0.004500151,
892,1761738994.900500,1761738994.875500,25,-18942,-315.7,392,397,-8,-3,,,1.002999783,-0.002999783,
893,1761738995.883000,1761738995.879000,4,-18941,-315.68,390,397,-10,-3,,,1.001000166,-0.001000166,
894,1761738996.887500,1761738996.877000,10.5,-18940,-315.67,393,399,-7,-1,,,0.982499838,0.017500162,
895,1761738997.892000,1761738997.883000,9,-18939,-315.65,391,397,-9,-3,,,1.004500151,-0.004500151,
896,1761738998.896500,1761738998.882500,14,-18938,-315.63,391,397,-9,-3,,,1.004499912,-0.004499912,
897,1761738999.898500,1761738999.879500,19,-18937,-315.62,392,398,-8,-2,,,1.004500151,-0.004500151,
898,1761739000.901500,1761739000.877000,24.5,-18936,-315.6,392,399,-8,-1,,,1.001999855,-0.001999855,
899,1761739001.884000,1761739001.882500,1.5,-18935,-315.58,393,397,-7,-3,,,1.003000021,-0.003000021,
900,1761739002.886000,1761739002.882000,4,-18934,-315.57,393,397,-7,-3,,,0.982500076,0.017499924,
901,1761739003.891500,1761739003.884000,7.5,-18933,-315.55,392,397,-8,-3,,,1.001999855,-0.001999855,
902,1761739004.898500,1761739004.885000,13.5,-18932,-315.53,391,397,-9,-3,,,1.005500078,-0.005500078,
903,1761739005.898000,1761739005.881000,17,-18931,-315.52,393,398,-7,-2,,,1.006999969,-0.006999969,
904,1761739006.902000,1761739006.878500,23.5,-18930,-315.5,393,399,-7,-1,,,0.999500036,0.000499964,
905,1761739007.887000,1761739007.880500,6.5,-18929,-315.48,390,399,-10,-1,,,1.003999949,-0.003999949,
906,1761739008.891500,1761739008.882500,9,-18928,-315.47,392,397,-8,-3,,,0.985000134,0.014999866,
907,1761739009.898500,1761739009.883000,15.5,-18927,-315.45,391,397,-9,-3,,,1.004499912,-0.004499912,
908,1761739010.903000,1761739010.883500,19.5,-18926,-315.43,390,397,-10,-3,,,1.006999969,-0.006999969,
909,1761739011.905000,1761739011.886500,18.5,-18924.9,-315.42,391,396,-9,-4,,,1.004500151,-0.004500151,
910,1761739012.907000,1761739012.879000,28,-18923.9,-315.4,391,400,-9,0,,,1.001999855,-0.001999855,
911,1761739013.887000,1761739013.886000,1,-18923,-315.38,391,397,-9,-3,,,1.002000093,-0.002000093,
912,1761739014.892500,1761739014.885500,7,-18922,-315.37,392,397,-8,-3,,,0.980000019,0.019999981,
913,1761739015.899000,1761739015.884500,14.5,-18921,-315.35,390,398,-10,-2,,,1.00549984,-0.00549984,
914,1761739016.902000,1761739016.886500,15.5,-18920,-315.33,391,397,-9,-3,,,1.006500006,-0.006500006,
915,1761739017.909000,1761739017.888500,20.5,-18918.9,-315.32,390,396,-10,-4,,,1.003000021,-0.003000021,
916,1761739018.908500,1761739018.881000,27.5,-18917.9,-315.3,392,399,-8,-1,,,1.006999969,-0.006999969,
917,1761739019.891000,1761739019.884000,7,-18917,-315.28,390,399,-10,-1,,,0.999500036,0.000499964,
918,1761739020.894000,1761739020.888500,5.5,-18916,-315.27,391,397,-9,-3,,,0.982500076,0.017499924,
919,1761739021.898500,1761739021.891500,7,-18915,-315.25,391,396,-9,-4,,,1.003000021,-0.003000021,
920,1761739022.899000,1761739022.890000,9,-18914,-315.23,393,396,-7,-4,,,1.004499912,-0.004499912,
921,1761739023.905000,1761739023.884500,20.5,-18912.9,-315.22,393,398,-7,-2,,,1.000499964,-0.000499964,
922,1761739024.909000,1761739024.882000,27,-18911.9,-315.2,392,400,-8,0,,,1.006000042,-0.006000042,
923,1761739025.891500,1761739025.888000,3.5,-18911,-315.18,391,396,-9,-4,,,1.003999949,-0.003999949,
924,1761739026.894500,1761739026.888500,6,-18910,-315.17,392,397,-8,-3,,,0.982500076,0.017499924,
925,1761739027.899000,1761739027.890500,8.5,-18909,-315.15,392,397,-8,-3,,,1.003000021,-0.003000021,
926,1761739028.903500,1761739028.891000,12.5,-18908,-315.13,392,396,-8,-4,,,1.004499912,-0.004499912,
927,1761739029.913000,1761739029.885500,27.5,-18906.9,-315.12,390,399,-10,-1,,,1.004500151,-0.004500151,
928,1761739030.913500,1761739030.885500,28,-18905.9,-315.1,391,398,-9,-2,,,1.009500027,-0.009500027,
929,1761739031.893500,1761739031.890000,3.5,-18905,-315.08,392,397,-8,-3,,,1.000499964,-0.000499964,
930,1761739032.896500,1761739032.890500,6,-18904,-315.07,393,398,-7,-2,,,0.980000019,0.019999981,
931,1761739033.903500,1761739033.892500,11,-18903,-315.05,390,397,-10,-3,,,1.003000021,-0.003000021,
932,1761739034.907000,1761739034.893000,14,-18901.9,-315.03,391,397,-9,-3,,,1.006999969,-0.006999969,
933,1761739035.911500,1761739035.890000,21.5,-18900.9,-315.02,391,398,-9,-2,,,1.003499985,-0.003499985,
934,1761739036.914500,1761739036.887500,27,-18899.9,-315,392,399,-8,-1,,,1.004499912,-0.004499912,
935,1761739037.897000,1761739037.892000,5,-18899,-314.98,391,396,-9,-4,,,1.003000021,-0.003000021,
936,1761739038.902500,1761739038.891500,11,-18898,-314.97,390,397,-10,-3,,,0.982500076,0.017499924,
937,1761739039.907000,1761739039.891000,16,-18896.9,-314.95,391,398,-9,-2,,,1.00549984,-0.00549984,
938,1761739040.912500,1761739040.896500,16,-18895.9,-314.93,391,396,-9,-4,,,1.004500151,-0.004500151,
939,1761739041.912000,1761739041.891000,21,-18894.9,-314.92,393,399,-7,-1,,,1.00549984,-0.00549984,
940,1761739042.915000,1761739042.891000,24,-18893.9,-314.9,392,398,-8,-2,,,0.999500036,0.000499964,
941,1761739043.897500,1761739043.893000,4.5,-18893,-314.88,392,399,-8,-1,,,1.003000021,-0.003000021,
942,1761739044.903000,1761739044.896000,7,-18892,-314.87,394,398,-6,-2,,,0.982500076,0.017499924,
943,1761739045.903500,1761739045.889500,14,-18891,-314.85,395,400,-5,0,,,1.005500078,-0.005500078,
944,1761739046.900500,1761739046.892000,8.5,-18890,-314.83,397,398,-3,-2,,,1.000499964,-0.000499964,
945,1761739047.895500,1761739047.890000,5.5,-18889,-314.82,395,399,-5,-1,,,0.996999979,0.003000021,
946,1761739048.898500,1761739048.889500,9,-18888,-314.8,397,401,-3,1,,,0.994999886,0.005000114,
947,1761739049.902000,1761739049.896500,5.5,-18887,-314.78,395,398,-5,-2,,,1.003000021,-0.003000021,
948,1761739050.910000,1761739050.898000,12,-18885.9,-314.77,392,397,-8,-3,,,1.003499985,-0.003499985,
949,1761739051.914500,1761739051.895000,19.5,-18884.9,-314.75,393,398,-7,-2,,,1.008000135,-0.008000135,
950,1761739052.919000,1761739052.892500,26.5,-18883.9,-314.73,392,400,-8,0,,,1.004499912,-0.004499912,
951,1761739053.901500,1761739053.901500,0,-18883,-314.72,392,397,-8,-3,,,1.004499912,-0.004499912,
952,1761739054.903500,1761739054.900000,3.5,-18882,-314.7,393,397,-7,-3,,,0.982500076,0.017499924,
953,1761739055.908000,1761739055.897000,11,-18880.9,-314.68,393,399,-7,-1,,,1.002000093,-0.002000093,
954,1761739056.915000,1761739056.896500,18.5,-18879.9,-314.67,392,399,-8,-1,,,1.004499912,-0.004499912,
955,1761739057.922000,1761739057.898500,23.5,-18878.9,-314.65,391,398,-9,-2,,,1.006999969,-0.006999969,
956,1761739058.924000,1761739058.896000,28,-18877.9,-314.63,391,399,-9,-1,,,1.006999969,-0.006999969,
957,1761739059.904000,1761739059.900500,3.5,-18876.9,-314.62,391,398,-9,-2,,,1.002000093,-0.002000093,
958,1761739060.906000,1761739060.902500,3.5,-18875.9,-314.6,391,397,-9,-3,,,0.980000019,0.019999981,
959,1761739061.913000,1761739061.902000,11,-18874.9,-314.58,392,397,-8,-3,,,1.001999855,-0.001999855,
960,1761739062.915000,1761739062.900500,14.5,-18873.9,-314.57,392,398,-8,-2,,,1.007000208,-0.007000208,
961,1761739063.920500,1761739063.900000,20.5,-18872.9,-314.55,392,398,-8,-2,,,1.001999855,-0.001999855,
962,1761739064.925000,1761739064.897500,27.5,-18871.9,-314.53,391,399,-9,-1,,,1.005500078,-0.005500078,
963,1761739065.905000,1761739065.902000,3,-18870.9,-314.52,392,397,-8,-3,,,1.004499912,-0.004499912,
964,1761739066.909500,1761739066.899000,10.5,-18869.9,-314.5,392,398,-8,-2,,,0.980000019,0.019999981,
965,1761739067.914000,1761739067.903500,10.5,-18868.9,-314.48,392,397,-8,-3,,,1.004499912,-0.004499912,
966,1761739068.916000,1761739068.902000,14,-18867.9,-314.47,392,398,-8,-2,,,1.004500151,-0.004500151,
967,1761739069.920500,1761739069.904000,16.5,-18866.9,-314.45,392,397,-8,-3,,,1.001999855,-0.001999855,
968,1761739070.925000,1761739070.899000,26,-18865.9,-314.43,392,399,-8,-1,,,1.004500151,-0.004500151,
969,1761739071.907500,1761739071.903500,4,-18864.9,-314.42,393,397,-7,-3,,,1.004499912,-0.004499912,
970,1761739072.912000,1761739072.903000,9,-18863.9,-314.4,392,398,-8,-2,,,0.982500076,0.017499924,
971,1761739073.915500,1761739073.905000,10.5,-18862.9,-314.38,391,397,-9,-3,,,1.004499912,-0.004499912,
972,1761739074.921000,1761739074.903500,17.5,-18861.9,-314.37,391,398,-9,-2,,,1.003499985,-0.003499985,
973,1761739075.925500,1761739075.905500,20,-18860.9,-314.35,392,397,-8,-3,,,1.005500078,-0.005500078,
974,1761739076.926500,1761739076.900500,26,-18859.9,-314.33,392,398,-8,-2,,,1.004499912,-0.004499912,
975,1761739077.909000,1761739077.902500,6.5,-18858.9,-314.32,393,399,-7,-1,,,1.001000166,-0.001000166,
976,1761739078.916000,1761739078.904500,11.5,-18857.9,-314.3,391,398,-9,-2,,,0.982499838,0.017500162,
977,1761739079.915500,1761739079.906500,9,-18856.9,-314.28,394,398,-6,-2,,,1.006999969,-0.006999969,
978,1761739080.920000,1761739080.911000,9,-18855.9,-314.27,393,396,-7,-4,,,0.999500036,0.000499964,
979,1761739081.927000,1761739081.908000,19,-18854.9,-314.25,392,397,-8,-3,,,1.004500151,-0.004500151,
980,1761739082.936500,1761739082.903000,33.5,-18853.9,-314.23,390,398,-10,-2,,,1.006999969,-0.006999969,
981,1761739083.914000,1761739083.907500,6.5,-18852.9,-314.22,390,398,-10,-2,,,1.009500027,-0.009500027,
982,1761739084.914500,1761739084.908500,6,-18851.9,-314.2,393,397,-7,-3,,,0.977499962,0.022500038,
983,1761739085.917500,1761739085.914000,3.5,-18850.9,-314.18,393,396,-7,-4,,,1.000499964,-0.000499964,
984,1761739086.927000,1761739086.910000,17,-18849.9,-314.17,390,397,-10,-3,,,1.003000021,-0.003000021,
985,1761739087.935000,1761739087.904500,30.5,-18848.9,-314.15,390,399,-10,-1,,,1.009500027,-0.009500027,
986,1761739088.930500,1761739088.904500,26,-18847.9,-314.13,393,399,-7,-1,,,1.007999897,-0.007999897,
987,1761739089.915500,1761739089.909000,6.5,-18846.9,-314.12,392,399,-8,-1,,,0.995500088,0.004499912,
988,1761739090.921000,1761739090.910000,11,-18845.9,-314.1,392,398,-8,-2,,,0.984999895,0.015000105,
989,1761739091.925000,1761739091.912000,13,-18844.9,-314.08,391,397,-9,-3,,,1.005500078,-0.005500078,
990,1761739092.928500,1761739092.911500,17,-18843.9,-314.07,391,398,-9,-2,,,1.003999949,-0.003999949,
991,1761739093.933000,1761739093.908500,24.5,-18842.9,-314.05,391,399,-9,-1,,,1.003499985,-0.003499985,
992,1761739094.937500,1761739094.908500,29,-18841.9,-314.03,390,399,-10,-1,,,1.004500151,-0.004500151,
993,1761739095.915000,1761739095.911500,3.5,-18840.9,-314.02,392,398,-8,-2,,,1.004499912,-0.004499912,
994,1761739096.922000,1761739096.913500,8.5,-18839.9,-314,392,398,-8,-2,,,0.977499962,0.022500038,
995,1761739097.931500,1761739097.919500,12,-18838.9,-313.98,390,395,-10,-5,,,1.006999969,-0.006999969,
996,1761739098.931000,1761739098.916500,14.5,-18837.9,-313.97,392,396,-8,-4,,,1.009500027,-0.009500027,
997,1761739099.924000,1761739099.910000,14,-18836.9,-313.95,396,400,-4,0,,,0.999500036,0.000499964,
998,1761739100.938500,1761739100.912500,26,-18835.9,-313.93,392,398,-8,-2,,,0.993000031,0.006999969,
999,1761739101.921000,1761739101.918000,3,-18834.9,-313.92,390,397,-10,-3,,,1.014499903,-0.014499903,
1000,1761739102.922000,1761739102.915000,7,-18833.9,-313.9,391,398,-9,-2,,,0.982500076,0.017499924,
1001,1761739103.930000,1761739103.917000,13,-18832.9,-313.88,391,397,-9,-3,,,1.000999928,-0.000999928,
1002,1761739104.937000,1761739104.916500,20.5,-18831.9,-313.87,390,398,-10,-2,,,1.008000135,-0.008000135,
1003,1761739105.940000,1761739105.916000,24,-18830.9,-313.85,390,398,-10,-2,,,1.006999969,-0.006999969,
1004,1761739106.939500,1761739106.913500,26,-18829.9,-313.83,393,400,-7,0,,,1.003000021,-0.003000021,
1005,1761739107.924500,1761739107.917000,7.5,-18828.9,-313.82,391,398,-9,-2,,,0.999500036,0.000499964,
1006,1761739108.926500,1761739108.916500,10,-18827.9,-313.8,391,398,-9,-2,,,0.984999895,0.015000105,
1007,1761739109.933500,1761739109.918500,15,-18826.9,-313.78,391,397,-9,-3,,,1.002000093,-0.002000093,
1008,1761739110.938500,1761739110.918000,20.5,-18825.9,-313.77,390,397,-10,-3,,,1.006999969,-0.006999969,
1009,1761739111.936500,1761739111.912500,24,-18824.9,-313.75,392,401,-8,1,,,1.004999876,-0.004999876,
1010,1761739112.919000,1761739112.917500,1.5,-18823.9,-313.73,391,398,-9,-2,,,0.998000145,0.001999855,
1011,1761739113.923500,1761739113.919500,4,-18822.9,-313.72,393,398,-7,-2,,,0.982499838,0.017500162,
1012,1761739114.932500,1761739114.921500,11,-18821.9,-313.7,390,397,-10,-3,,,1.004500151,-0.004500151,
1013,1761739115.937000,1761739115.921000,16,-18820.9,-313.68,391,398,-9,-2,,,1.008999825,-0.008999825,
1014,1761739116.944500,1761739116.925500,19,-18819.9,-313.67,389,396,-11,-4,,,1.004500151,-0.004500151,
1015,1761739117.945000,1761739117.925000,20,-18818.9,-313.65,391,398,-9,-2,,,1.007499933,-0.007499933,
1016,1761739118.925000,1761739118.922500,2.5,-18817.9,-313.63,390,397,-10,-3,,,1.000499964,-0.000499964,
1017,1761739119.929500,1761739119.923000,6.5,-18816.9,-313.62,389,397,-11,-3,,,0.980000019,0.019999981,
1018,1761739120.934000,1761739120.923500,10.5,-18815.9,-313.6,392,398,-8,-2,,,1.004500151,-0.004500151,
1019,1761739121.939500,1761739121.925500,14,-18814.9,-313.58,391,397,-9,-3,,,1.004499912,-0.004499912,
1020,1761739122.944000,1761739122.925000,19,-18813.9,-313.57,390,397,-10,-3,,,1.005500078,-0.005500078,
1021,1761739123.944500,1761739123.922000,22.5,-18812.9,-313.55,392,399,-8,-1,,,1.004499912,-0.004499912,
1022,1761739124.927000,1761739124.922000,5,-18811.9,-313.53,391,399,-9,-1,,,1.000499964,-0.000499964,
1023,1761739125.930000,1761739125.923000,7,-18810.9,-313.52,392,398,-8,-2,,,0.982500076,0.017499924,
1024,1761739126.932000,1761739126.927500,4.5,-18809.9,-313.5,393,397,-7,-3,,,1.003000021,-0.003000021,
1025,1761739127.942500,1761739127.923500,19,-18808.9,-313.48,391,399,-9,-1,,,1.001999855,-0.001999855,
1026,1761739128.946500,1761739128.926500,20,-18807.9,-313.47,391,398,-9,-2,,,1.010500193,-0.010500193,
1027,1761739129.948500,1761739129.925000,23.5,-18806.9,-313.45,391,401,-9,1,,,1.003999949,-0.003999949,
1028,1761739130.928500,1761739130.930000,1.5,-18805.9,-313.43,391,397,-9,-3,,,1.001999855,-0.001999855,
1029,1761739131.934000,1761739131.927000,7,-18804.9,-313.42,393,398,-7,-2,,,0.980000019,0.019999981,
1030,1761739132.941000,1761739132.929000,12,-18803.9,-313.4,391,397,-9,-3,,,1.005500078,-0.005500078,
1031,1761739133.940500,1761739133.929500,11,-18802.9,-313.38,391,397,-9,-3,,,1.006999969,-0.006999969,
1032,1761739134.951000,1761739134.926500,24.5,-18801.9,-313.37,390,399,-10,-1,,,0.999500036,0.000499964,
1033,1761739135.950500,1761739135.926500,24,-18800.9,-313.35,392,399,-8,-1,,,1.010499954,-0.010499954,
1034,1761739136.933000,1761739136.931000,2,-18799.9,-313.33,390,397,-10,-3,,,0.999500036,0.000499964,
1035,1761739137.935000,1761739137.931500,3.5,-18798.9,-313.32,392,397,-8,-3,,,0.982500076,0.017499924,
1036,1761739138.939500,1761739138.928500,11,-18797.9,-313.3,392,398,-8,-2,,,1.001999855,-0.001999855,
1037,1761739139.945000,1761739139.930500,14.5,-18796.9,-313.28,391,398,-9,-2,,,1.004500151,-0.004500151,
1038,1761739140.954500,1761739140.927500,27,-18795.9,-313.26,390,400,-10,0,,,1.00549984,-0.00549984,
1039,1761739141.954000,1761739141.930000,24,-18794.9,-313.25,391,398,-9,-2,,,1.009500027,-0.009500027,
1040,1761739142.934000,1761739142.933500,0.5,-18793.9,-313.23,391,397,-9,-3,,,0.999500036,0.000499964,
1041,1761739143.936000,1761739143.931500,4.5,-18792.9,-313.22,393,398,-7,-2,,,0.980000019,0.019999981,
1042,1761739144.943500,1761739144.933500,10,-18791.9,-313.2,390,397,-10,-3,,,1.002000093,-0.002000093,
1043,1761739145.951500,1761739145.930500,21,-18790.9,-313.18,391,399,-9,-1,,,1.007499933,-0.007499933,
1044,1761739146.953500,1761739146.932500,21,-18789.9,-313.17,391,398,-9,-2,,,1.007999897,-0.007999897,
1045,1761739147.955500,1761739147.930000,25.5,-18788.9,-313.15,392,399,-8,-1,,,1.002000093,-0.002000093,
1046,1761739148.938000,1761739148.934500,3.5,-18787.9,-313.13,391,398,-9,-2,,,1.001999855,-0.001999855,
1047,1761739149.946000,1761739149.936500,9.5,-18786.9,-313.12,390,398,-10,-2,,,0.982500076,0.017499924,
1048,1761739150.945500,1761739150.936000,9.5,-18785.9,-313.1,393,397,-7,-3,,,1.008000135,-0.008000135,
1049,1761739151.952000,1761739151.938000,14,-18784.9,-313.08,392,397,-8,-3,,,0.999499798,0.000500202,
1050,1761739152.954000,1761739152.936000,18,-18783.9,-313.06,392,398,-8,-2,,,1.006500006,-0.006500006,
1051,1761739153.959500,1761739153.933500,26,-18782.9,-313.05,391,399,-9,-1,,,1.002000093,-0.002000093,
1052,1761739154.939500,1761739154.939500,0,-18781.9,-313.03,392,398,-8,-2,,,1.005500078,-0.005500078,
1053,1761739155.942500,1761739155.943500,1,-18780.9,-313.02,393,396,-7,-4,,,0.980000019,0.019999981,
1054,1761739156.949000,1761739156.940500,8.5,-18779.9,-313,392,396,-8,-4,,,1.003000021,-0.003000021,
1055,1761739157.952000,1761739157.937000,15,-18778.9,-312.98,391,399,-9,-1,,,1.006499767,-0.006499767,
1056,1761739158.960000,1761739158.936500,23.5,-18777.9,-312.96,392,400,-8,0,,,1.003000021,-0.003000021,
1057,1761739159.959500,1761739159.939000,20.5,-18776.9,-312.95,393,399,-7,-1,,,1.008000135,-0.008000135,
1058,1761739160.944500,1761739160.942000,2.5,-18775.9,-312.93,392,397,-8,-3,,,0.999500036,0.000499964,
1059,1761739161.945000,1761739161.941500,3.5,-18774.9,-312.92,394,398,-6,-2,,,0.984999895,0.015000105,
1060,1761739162.951000,1761739162.942500,8.5,-18773.9,-312.9,391,397,-9,-3,,,1.000499964,-0.000499964,
1061,1761739163.958000,1761739163.943000,15,-18772.9,-312.88,392,398,-8,-2,,,1.006000042,-0.006000042,
1062,1761739164.960000,1761739164.940000,20,-18771.9,-312.86,393,399,-7,-1,,,1.006999969,-0.006999969,
1063,1761739165.962000,1761739165.940000,22,-18770.9,-312.85,392,399,-8,-1,,,1.002000093,-0.002000093,
1064,1761739166.944500,1761739166.942000,2.5,-18769.9,-312.83,391,398,-9,-2,,,1.001999855,-0.001999855,
1065,1761739167.950000,1761739167.941000,9,-18768.9,-312.82,390,399,-10,-1,,,0.982500076,0.017499924,
1066,1761739168.954500,1761739168.943000,11.5,-18767.9,-312.8,390,398,-10,-2,,,1.005500078,-0.005500078,
1067,1761739169.960000,1761739169.942500,17.5,-18766.9,-312.78,392,399,-8,-1,,,1.004499912,-0.004499912,
1068,1761739170.963000,1761739170.944500,18.5,-18765.9,-312.76,391,398,-9,-2,,,1.005500078,-0.005500078,
1069,1761739171.964500,1761739171.942000,22.5,-18764.9,-312.75,393,399,-7,-1,,,1.003000021,-0.003000021,
1070,1761739172.949500,1761739172.943000,6.5,-18763.9,-312.73,390,399,-10,-1,,,1.001499891,-0.001499891,
1071,1761739173.950000,1761739173.947500,2.5,-18762.9,-312.72,394,397,-6,-3,,,0.985000134,0.014999866,
1072,1761739174.959500,1761739174.944500,15,-18761.9,-312.7,391,396,-9,-4,,,1.000499964,-0.000499964,
1073,1761739175.961500,1761739175.946500,15,-18760.9,-312.68,392,397,-8,-3,,,1.009500027,-0.009500027,
1074,1761739176.965000,1761739176.943500,21.5,-18759.9,-312.66,392,399,-8,-1,,,1.001999855,-0.001999855,
1075,1761739177.966500,1761739177.943500,23,-18758.9,-312.65,392,399,-8,-1,,,1.003499985,-0.003499985,
1076,1761739178.949000,1761739178.947000,2,-18757.9,-312.63,392,398,-8,-2,,,1.00150013,-0.00150013,
1077,1761739179.954500,1761739179.949000,5.5,-18756.9,-312.61,392,396,-8,-4,,,0.982499838,0.017500162,
1078,1761739180.957500,1761739180.948500,9,-18755.9,-312.6,393,397,-7,-3,,,1.005500078,-0.005500078,
1079,1761739181.968000,1761739181.945500,22.5,-18754.9,-312.58,390,400,-10,0,,,1.003000021,-0.003000021,
1080,1761739182.967500,1761739182.944000,23.5,-18753.9,-312.56,392,399,-8,-1,,,1.010499954,-0.010499954,
1081,1761739183.970500,1761739183.944000,26.5,-18752.9,-312.55,391,400,-9,0,,,0.999500036,0.000499964,
1082,1761739184.950500,1761739184.948500,2,-18751.9,-312.53,392,398,-8,-2,,,1.003000021,-0.003000021,
1083,1761739185.957500,1761739185.948000,9.5,-18750.9,-312.51,392,399,-8,-1,,,0.980000019,0.019999981,
1084,1761739186.961500,1761739186.952500,9,-18749.9,-312.5,393,398,-7,-2,,,1.006999969,-0.006999969,
1085,1761739187.969500,1761739187.954500,15,-18748.9,-312.48,392,397,-8,-3,,,1.003999949,-0.003999949,
1086,1761739188.971500,1761739188.953000,18.5,-18747.9,-312.46,392,397,-8,-3,,,1.008000135,-0.008000135,
1087,1761739189.973500,1761739189.948000,25.5,-18746.9,-312.45,392,399,-8,-1,,,1.001999855,-0.001999855,
1088,1761739190.956000,1761739190.955000,1,-18745.9,-312.43,392,397,-8,-3,,,1.002000093,-0.002000093,
1089,1761739191.961500,1761739191.955500,6,-18744.9,-312.41,392,397,-8,-3,,,0.982500076,0.017499924,
1090,1761739192.966000,1761739192.956500,9.5,-18743.9,-312.4,392,397,-8,-3,,,1.00549984,-0.00549984,
1091,1761739193.969000,1761739193.956000,13,-18742.9,-312.38,392,397,-8,-3,,,1.004500151,-0.004500151,
1092,1761739194.977000,1761739194.950500,26.5,-18741.9,-312.36,391,399,-9,-1,,,1.003000021,-0.003000021,
1093,1761739195.982500,1761739195.950500,32,-18740.9,-312.35,389,399,-11,-1,,,1.007999897,-0.007999897,
1094,1761739196.957500,1761739196.952500,5,-18739.9,-312.33,391,399,-9,-1,,,1.005500078,-0.005500078,
1095,1761739197.963000,1761739197.959500,3.5,-18738.9,-312.31,391,396,-9,-4,,,0.974999905,0.025000095,
1096,1761739198.967000,1761739198.954000,13,-18737.9,-312.3,392,398,-8,-2,,,1.005500078,-0.005500078,
1097,1761739199.974000,1761739199.958500,15.5,-18736.9,-312.28,391,396,-9,-4,,,1.003999949,-0.003999949,
1098,1761739200.976000,1761739200.955500,20.5,-18735.9,-312.26,392,397,-8,-3,,,1.006999969,-0.006999969,
1099,1761739201.979000,1761739201.950500,28.5,-18734.9,-312.25,391,398,-9,-2,,,1.002000093,-0.002000093,
1100,1761739202.959000,1761739202.955000,4,-18733.9,-312.23,392,398,-8,-2,,,1.003000021,-0.003000021,
1101,1761739203.963500,1761739203.955500,8,-18732.9,-312.21,392,399,-8,-1,,,0.980000019,0.019999981,
1102,1761739204.972000,1761739204.957500,14.5,-18731.9,-312.2,391,398,-9,-2,,,1.004499912,-0.004499912,
1103,1761739205.974000,1761739205.955500,18.5,-18730.9,-312.18,392,399,-8,-1,,,1.008499861,-0.008499861,
1104,1761739206.982000,1761739206.955000,27,-18729.9,-312.16,391,398,-9,-2,,,1.002000093,-0.002000093,
1105,1761739207.980000,1761739207.952500,27.5,-18728.9,-312.15,391,400,-9,0,,,1.008000135,-0.008000135,
1106,1761739208.960000,1761739208.958000,2,-18727.9,-312.13,392,398,-8,-2,,,0.997999907,0.002000093,
1107,1761739209.967000,1761739209.959000,8,-18726.9,-312.11,390,397,-10,-3,,,0.980000019,0.019999981,
1108,1761739210.972500,1761739210.962000,10.5,-18725.9,-312.1,391,397,-9,-3,,,1.006999969,-0.006999969,
1109,1761739211.979500,1761739211.961000,18.5,-18724.9,-312.08,390,397,-10,-3,,,1.005500078,-0.005500078,
1110,1761739212.982500,1761739212.961500,21,-18723.9,-312.06,391,397,-9,-3,,,1.006999969,-0.006999969,
1111,1761739213.987000,1761739213.956500,30.5,-18722.9,-312.05,391,399,-9,-1,,,1.003000021,-0.003000021,
1112,1761739214.967000,1761739214.959500,7.5,-18721.9,-312.03,390,398,-10,-2,,,1.004499912,-0.004499912,
1113,1761739215.970000,1761739215.959000,11,-18720.9,-312.01,391,398,-9,-2,,,0.980000019,0.019999981,
1114,1761739216.972000,1761739216.961000,11,-18719.9,-312,392,397,-8,-3,,,1.003000021,-0.003000021,
1115,1761739217.979000,1761739217.963000,16,-18718.9,-311.98,391,396,-9,-4,,,1.001999855,-0.001999855,
1116,1761739218.980000,1761739218.954000,26,-18717.9,-311.96,391,400,-9,0,,,1.007000208,-0.007000208,
1117,1761739219.979500,1761739219.956500,23,-18716.9,-311.95,393,400,-7,0,,,1.000999928,-0.000999928,
1118,1761739220.964500,1761739220.961000,3.5,-18715.9,-311.93,392,398,-8,-2,,,0.999500036,0.000499964,
1119,1761739221.974000,1761739221.968000,6,-18714.9,-311.91,391,396,-9,-4,,,0.984999895,0.015000105,
1120,1761739222.975000,1761739222.962500,12.5,-18713.9,-311.9,392,398,-8,-2,,,1.009500027,-0.009500027,
1121,1761739223.983000,1761739223.962000,21,-18712.9,-311.88,392,400,-8,0,,,1.000999928,-0.000999928,
1122,1761739224.986500,1761739224.964000,22.5,-18711.9,-311.86,392,400,-8,0,,,1.008000135,-0.008000135,
1123,1761739225.992000,1761739225.966500,25.5,-18710.9,-311.85,391,398,-9,-2,,,1.003499985,-0.003499985,
1124,1761739226.972000,1761739226.963500,8.5,-18709.9,-311.83,390,399,-10,-1,,,1.005500078,-0.005500078,
1125,1761739227.975000,1761739227.968000,7,-18708.9,-311.81,391,397,-9,-3,,,0.979999781,0.020000219,
1126,1761739228.977000,1761739228.965000,12,-18707.9,-311.8,393,399,-7,-1,,,1.003000021,-0.003000021,
1127,1761739229.986500,1761739229.969500,17,-18706.9,-311.78,391,397,-9,-3,,,1.002000093,-0.002000093,
1128,1761739230.986000,1761739230.966500,19.5,-18705.9,-311.76,392,399,-8,-1,,,1.009500027,-0.009500027,
1129,1761739231.968500,1761739231.966500,2,-18704.9,-311.75,392,398,-8,-2,,,0.999500036,0.000499964,
1130,1761739232.970500,1761739232.971000,0.5,-18703.9,-311.73,391,396,-9,-4,,,0.982499838,0.017500162,
1131,1761739233.977500,1761739233.968000,9.5,-18702.9,-311.71,390,397,-10,-3,,,1.002000093,-0.002000093,
1132,1761739234.985500,1761739234.970000,15.5,-18701.9,-311.7,391,398,-9,-2,,,1.006999969,-0.006999969,
1133,1761739235.992500,1761739235.974500,18,-18700.9,-311.68,389,396,-11,-4,,,1.008000135,-0.008000135,
1134,1761739236.994500,1761739236.970500,24,-18699.9,-311.66,390,399,-10,-1,,,1.006999969,-0.006999969,
1135,1761739237.972000,1761739237.970500,1.5,-18698.9,-311.65,390,398,-10,-2,,,1.001999855,-0.001999855,
1136,1761739238.975000,1761739238.972500,2.5,-18697.9,-311.63,391,397,-9,-3,,,0.977499962,0.022500038,
1137,1761739239.980500,1761739239.971000,9.5,-18696.9,-311.61,391,398,-9,-2,,,1.003000021,-0.003000021,
1138,1761739240.987000,1761739240.973000,14,-18695.9,-311.6,391,397,-9,-3,,,1.005500078,-0.005500078,
1139,1761739241.990000,1761739241.977500,12.5,-18694.9,-311.58,392,395,-8,-5,,,1.006500006,-0.006500006,
1140,1761739242.985500,1761739242.967000,18.5,-18693.9,-311.56,395,400,-5,0,,,1.003000021,-0.003000021,
1141,1761739243.975500,1761739243.969500,6,-18692.9,-311.55,391,399,-9,-1,,,0.995500088,0.004499912,
1142,1761739244.978500,1761739244.971500,7,-18691.9,-311.53,391,398,-9,-2,,,0.99000001,0.00999999,
1143,1761739245.984000,1761739245.976000,8,-18690.9,-311.51,390,397,-10,-3,,,1.002999783,-0.002999783,
1144,1761739246.989500,1761739246.975500,14,-18689.9,-311.5,391,397,-9,-3,,,1.005500078,-0.005500078,
1145,1761739247.993500,1761739247.972500,21,-18688.9,-311.48,391,399,-9,-1,,,1.005500078,-0.005500078,
1146,1761739248.991500,1761739248.974500,17,-18687.9,-311.46,393,399,-7,-1,,,1.003999949,-0.003999949,
1147,1761739249.976500,1761739249.974500,2,-18686.9,-311.45,393,398,-7,-2,,,0.997999907,0.002000093,
1148,1761739250.980000,1761739250.974000,6,-18685.9,-311.43,393,399,-7,-1,,,0.985000134,0.014999866,
1149,1761739251.985500,1761739251.974500,11,-18684.9,-311.41,391,399,-9,-1,,,1.003499985,-0.003499985,
1150,1761739252.987500,1761739252.974000,13.5,-18683.9,-311.4,393,399,-7,-1,,,1.005500078,-0.005500078,
1151,1761739253.993000,1761739253.974500,18.5,-18682.9,-311.38,392,399,-8,-1,,,1.001999855,-0.001999855,
1152,1761739254.997500,1761739254.971500,26,-18681.9,-311.36,391,400,-9,0,,,1.005500078,-0.005500078,
1153,1761739255.977500,1761739255.974000,3.5,-18680.9,-311.35,391,397,-9,-3,,,1.004499912,-0.004499912,
1154,1761739256.982000,1761739256.974500,7.5,-18679.9,-311.33,391,398,-9,-2,,,0.980000019,0.019999981,
1155,1761739257.984000,1761739257.974000,10,-18678.9,-311.31,394,399,-6,-1,,,1.004500151,-0.004500151,
1156,1761739258.989500,1761739258.976000,13.5,-18677.9,-311.3,392,399,-8,-1,,,1.001999855,-0.001999855,
1157,1761739259.987500,1761739259.975500,12,-18676.9,-311.28,395,399,-5,-1,,,1.005500078,-0.005500078,
1158,1761739260.997000,1761739260.973500,23.5,-18675.9,-311.26,392,400,-8,0,,,0.997999907,0.002000093,
1159,1761739261.979500,1761739261.976000,3.5,-18674.9,-311.25,391,398,-9,-2,,,1.009500027,-0.009500027,
1160,1761739262.984000,1761739262.975500,8.5,-18673.9,-311.23,392,398,-8,-2,,,0.982500076,0.017499924,
1161,1761739263.992000,1761739263.978500,13.5,-18672.9,-311.21,390,399,-10,-1,,,1.004499912,-0.004499912,
1162,1761739264.993000,1761739264.980500,12.5,-18671.9,-311.2,391,398,-9,-2,,,1.008000135,-0.008000135,
1163,1761739265.997500,1761739265.982500,15,-18670.9,-311.18,392,397,-8,-3,,,1.000999928,-0.000999928,
1164,1761739267.004000,1761739266.977000,27,-18669.8,-311.16,391,400,-9,0,,,1.004499912,-0.004499912,
1165,1761739267.984000,1761739267.979500,4.5,-18668.9,-311.15,391,398,-9,-2,,,1.006500006,-0.006500006,
1166,1761739268.991000,1761739268.981000,10,-18667.9,-311.13,391,398,-9,-2,,,0.980000019,0.019999981,
1167,1761739269.996500,1761739269.984500,12,-18666.9,-311.11,390,397,-10,-3,,,1.006999969,-0.006999969,
1168,1761739270.996000,1761739270.981500,14.5,-18665.9,-311.1,393,398,-7,-2,,,1.005500078,-0.005500078,
1169,1761739272.003000,1761739271.981000,22,-18664.9,-311.08,391,398,-9,-2,,,0.999500036,0.000499964,
1170,1761739273.005000,1761739272.980500,24.5,-18663.8,-311.06,391,400,-9,0,,,1.006999969,-0.006999969,
1171,1761739273.985000,1761739273.983000,2,-18662.9,-311.05,392,398,-8,-2,,,1.002000093,-0.002000093,
1172,1761739274.990500,1761739274.985000,5.5,-18661.9,-311.03,392,398,-8,-2,,,0.979999781,0.020000219,
1173,1761739275.995000,1761739275.984500,10.5,-18660.9,-311.01,390,398,-10,-2,,,1.005500078,-0.005500078,
1174,1761739276.999500,1761739276.989000,10.5,-18659.9,-311,391,396,-9,-4,,,1.004499912,-0.004499912,
1175,1761739278.006500,1761739277.983500,23,-18658.8,-310.98,391,398,-9,-2,,,1.004500151,-0.004500151,
1176,1761739279.002000,1761739278.981000,21,-18657.9,-310.96,396,400,-4,0,,,1.006999969,-0.006999969,
1177,1761739279.994500,1761739279.985500,9,-18656.9,-310.95,394,399,-6,-1,,,0.995500088,0.004499912,
1178,1761739280.998000,1761739280.983500,14.5,-18655.9,-310.93,393,400,-7,0,,,0.992499828,0.007500172,
1179,1761739281.996500,1761739281.982000,14.5,-18654.9,-310.91,396,399,-4,-1,,,1.003499985,-0.003499985,
1180,1761739282.998500,1761739282.982000,16.5,-18653.9,-310.9,395,399,-5,-1,,,0.998500109,0.001499891,
1181,1761739283.988500,1761739283.986500,2,-18652.9,-310.88,392,398,-8,-2,,,1.002000093,-0.002000093,
1182,1761739284.996500,1761739284.988500,8,-18651.9,-310.86,390,398,-10,-2,,,0.99000001,0.00999999,
1183,1761739286.001000,1761739285.990500,10.5,-18650.9,-310.85,389,396,-11,-4,,,1.007999897,-0.007999897,
1184,1761739287.003000,1761739286.993500,9.5,-18649.9,-310.83,393,396,-7,-4,,,1.004499912,-0.004499912,
1185,1761739288.007500,1761739287.986500,21,-18648.8,-310.81,391,398,-9,-2,,,1.002000093,-0.002000093,
1186,1761739289.012000,1761739288.984000,28,-18647.8,-310.8,391,398,-9,-2,,,1.004499912,-0.004499912,
1187,1761739289.992000,1761739289.988500,3.5,-18646.9,-310.78,390,398,-10,-2,,,1.004500151,-0.004500151,
1188,1761739290.997500,1761739290.987000,10.5,-18645.9,-310.76,390,398,-10,-2,,,0.980000019,0.019999981,
1189,1761739292.003500,1761739291.992500,11,-18644.9,-310.75,391,397,-9,-3,,,1.00549984,-0.00549984,
1190,1761739293.006500,1761739292.988500,18,-18643.8,-310.73,391,399,-9,-1,,,1.006000042,-0.006000042,
1191,1761739294.013500,1761739293.989000,24.5,-18642.8,-310.71,391,398,-9,-2,,,1.003000021,-0.003000021,
1192,1761739295.013000,1761739294.986500,26.5,-18641.8,-310.7,391,399,-9,-1,,,1.006999969,-0.006999969,
1193,1761739295.993000,1761739295.991500,1.5,-18640.9,-310.68,390,399,-10,-1,,,0.999500036,0.000499964,
1194,1761739297.003500,1761739296.995000,8.5,-18639.9,-310.66,390,397,-10,-3,,,0.980000019,0.019999981,
1195,1761739298.004500,1761739297.997000,7.5,-18638.8,-310.65,390,396,-10,-4,,,1.010499954,-0.010499954,
1196,1761739299.011000,1761739298.994000,17,-18637.8,-310.63,390,397,-10,-3,,,1.000999928,-0.000999928,
1197,1761739300.015500,1761739299.993500,22,-18636.8,-310.61,391,397,-9,-3,,,1.006500006,-0.006500006,
1198,1761739301.021000,1761739300.988500,32.5,-18635.8,-310.6,389,399,-11,-1,,,1.004500151,-0.004500151,
1199,1761739301.996000,1761739301.990500,5.5,-18634.9,-310.58,392,399,-8,-1,,,1.00549984,-0.00549984,
1200,1761739303.003000,1761739302.997500,5.5,-18633.9,-310.56,391,396,-9,-4,,,0.975000143,0.024999857,
1201,1761739304.006000,1761739303.993000,13,-18632.8,-310.55,391,398,-9,-2,,,1.006999969,-0.006999969,
1202,1761739305.010000,1761739304.995000,15,-18631.8,-310.53,392,397,-8,-3,,,1.003000021,-0.003000021,
1203,1761739306.017000,1761739305.992000,25,-18630.8,-310.51,390,398,-10,-2,,,1.003999949,-0.003999949,
1204,1761739307.012500,1761739306.989500,23,-18629.8,-310.5,393,400,-7,0,,,1.006999969,-0.006999969,
1205,1761739307.997500,1761739307.994000,3.5,-18628.9,-310.48,392,397,-8,-3,,,0.995500088,0.004499912,
1206,1761739309.001500,1761739308.996000,5.5,-18627.9,-310.46,392,397,-8,-3,,,0.984999895,0.015000105,
1207,1761739310.006000,1761739309.997500,8.5,-18626.8,-310.45,394,396,-6,-4,,,1.003999949,-0.003999949,
1208,1761739311.012500,1761739310.994500,18,-18625.8,-310.43,391,398,-9,-2,,,1.004500151,-0.004500151,
1209,1761739312.020500,1761739311.992500,28,-18624.8,-310.41,391,399,-9,-1,,,1.006500006,-0.006500006,
1210,1761739313.019000,1761739312.992500,26.5,-18623.8,-310.4,391,399,-9,-1,,,1.007999897,-0.007999897,
1211,1761739313.999000,1761739313.997000,2,-18622.9,-310.38,392,397,-8,-3,,,0.998500109,0.001499891,
1212,1761739315.006000,1761739314.999000,7,-18621.8,-310.36,392,398,-8,-2,,,0.980000019,0.019999981,
1213,1761739316.011500,1761739316.001000,10.5,-18620.8,-310.35,391,397,-9,-3,,,1.006999969,-0.006999969,
