sync_num,icg_timestamp,ecg_timestamp,time_diff_ms,elapsed_time_s,elapsed_time_min,icg_samples_between,ecg_samples_between,icg_sample_deviation,ecg_sample_deviation
7,1761643640.362000,1761643640.338500,23.500,-19801.3,-330.02,394,400,-6,+0
8,1761643641.349500,1761643641.341000,8.500,-19800.3,-330.01,393,398,-7,-2
9,1761643642.346000,1761643642.338000,8.000,-19799.3,-329.99,395,401,-5,+1
10,1761643643.351500,1761643643.341500,10.000,-19798.3,-329.97,394,400,-6,+0
11,1761643644.347000,1761643644.341000,6.000,-19797.3,-329.96,390,398,-10,-2
12,1761643645.351000,1761643645.343000,8.000,-19796.3,-329.94,392,400,-8,+0
13,1761643646.351500,1761643646.341000,10.500,-19795.3,-329.92,390,400,-10,+0
14,1761643647.354500,1761643647.340500,14.000,-19794.3,-329.91,390,400,-10,+0
15,1761643648.347500,1761643648.342000,5.500,-19793.3,-329.89,390,399,-10,-1
16,1761643649.350500,1761643649.341500,9.000,-19792.3,-329.87,395,398,-5,-2
17,1761643650.350000,1761643650.343000,7.000,-19791.3,-329.86,391,400,-9,+0
18,1761643651.355000,1761643651.344000,11.000,-19790.3,-329.84,392,398,-8,-2
19,1761643652.347500,1761643652.344500,3.000,-19789.3,-329.82,392,400,-8,+0
20,1761643653.352500,1761643653.344000,8.500,-19788.3,-329.81,391,399,-9,-1
21,1761643654.351500,1761643654.344500,7.000,-19787.3,-329.79,391,399,-9,-1
22,1761643655.357000,1761643655.345000,12.000,-19786.3,-329.77,391,400,-9,+0
23,1761643656.350500,1761643656.343000,7.500,-19785.3,-329.76,391,400,-9,+0
24,1761643657.356000,1761643657.342500,13.500,-19784.3,-329.74,392,401,-8,+1
25,1761643658.353000,1761643658.348000,5.000,-19783.3,-329.72,391,399,-9,-1
26,1761643659.360500,1761643659.345000,15.500,-19782.3,-329.71,391,399,-9,-1
27,1761643660.356000,1761643660.345500,10.500,-19781.3,-329.69,390,400,-10,+0
28,1761643661.356500,1761643661.345000,11.500,-19780.3,-329.67,392,400,-8,+0
29,1761643662.354500,1761643662.346500,8.000,-19779.3,-329.66,392,400,-8,+0
30,1761643663.357500,1761643663.348500,9.000,-19778.3,-329.64,392,400,-8,+0
31,1761643664.353000,1761643664.347500,5.500,-19777.3,-329.62,391,399,-9,-1
32,1761643665.357500,1761643665.348500,9.000,-19776.3,-329.61,393,400,-7,+0
33,1761643666.357000,1761643666.348500,8.500,-19775.3,-329.59,390,400,-10,+0
34,1761643667.355000,1761643667.348000,7.000,-19774.3,-329.57,395,401,-5,+1
35,1761643668.360500,1761643668.350000,10.500,-19773.3,-329.56,781,400,+381,+0
37,1761643670.358000,1761643670.353000,5.000,-19771.3,-329.52,391,399,-9,-1
38,1761643671.357500,1761643671.353500,4.000,-19770.3,-329.51,391,400,-9,+0
39,1761643672.361500,1761643672.354000,7.500,-19769.3,-329.49,391,400,-9,+0
40,1761643673.355500,1761643673.352500,3.000,-19768.3,-329.47,392,400,-8,+0
41,1761643674.359500,1761643674.351500,8.000,-19767.3,-329.46,392,401,-8,+1
42,1761643675.360000,1761643675.356000,4.000,-19766.3,-329.44,392,400,-8,+0
43,1761643676.362500,1761643676.356500,6.000,-19765.3,-329.42,392,400,-8,+0
44,1761643677.358000,1761643677.354500,3.500,-19764.3,-329.41,390,399,-10,-1
45,1761643678.361500,1761643678.355500,6.000,-19763.3,-329.39,391,400,-9,+0
46,1761643679.358500,1761643679.356000,2.500,-19762.3,-329.37,391,400,-9,+0
47,1761643680.365000,1761643680.354500,10.500,-19761.3,-329.36,391,400,-9,+0
48,1761643681.362000,1761643681.357500,4.500,-19760.3,-329.34,390,399,-10,-1
49,1761643682.365000,1761643682.357000,8.000,-19759.3,-329.32,393,397,-7,-3
50,1761643683.362000,1761643683.356500,5.500,-19758.3,-329.31,390,400,-10,+0
51,1761643684.369000,1761643684.358500,10.500,-19757.3,-329.29,390,400,-10,+0
52,1761643685.362000,1761643685.358000,4.000,-19756.3,-329.27,392,400,-8,+0
53,1761643686.365500,1761643686.358500,7.000,-19755.3,-329.26,392,401,-8,+1
54,1761643687.362500,1761643687.360500,2.000,-19754.3,-329.24,390,400,-10,+0
55,1761643688.369000,1761643688.359000,10.000,-19753.3,-329.22,390,400,-10,+0
56,1761643689.363500,1761643689.359500,4.000,-19752.3,-329.21,393,399,-7,-1
57,1761643690.367500,1761643690.359000,8.500,-19751.3,-329.19,392,400,-8,+0
58,1761643691.364500,1761643691.359500,5.000,-19750.3,-329.17,391,400,-9,+0
59,1761643692.369500,1761643692.359000,10.500,-19749.3,-329.15,393,399,-7,-1
60,1761643693.364000,1761643693.360500,3.500,-19748.3,-329.14,392,400,-8,+0
61,1761643694.368000,1761643694.362500,5.500,-19747.3,-329.12,392,400,-8,+0
62,1761643695.370000,1761643695.360500,9.500,-19746.3,-329.10,390,400,-10,+0
63,1761643696.370500,1761643696.362500,8.000,-19745.3,-329.09,390,400,-10,+0
64,1761643697.368500,1761643697.362000,6.500,-19744.3,-329.07,389,400,-11,+0
65,1761643698.372000,1761643698.361500,10.500,-19743.3,-329.05,392,400,-8,+0
66,1761643699.370000,1761643699.364500,5.500,-19742.3,-329.04,390,399,-10,-1
67,1761643700.372500,1761643700.363500,9.000,-19741.3,-329.02,391,400,-9,+0
68,1761643701.370500,1761643701.364000,6.500,-19740.3,-329.00,393,400,-7,+0
69,1761643702.373500,1761643702.362500,11.000,-19739.3,-328.99,392,400,-8,+0
70,1761643703.370500,1761643703.365000,5.500,-19738.3,-328.97,394,399,-6,-1
71,1761643704.376000,1761643704.363000,13.000,-19737.3,-328.95,392,400,-8,+0
72,1761643705.371500,1761643705.365000,6.500,-19736.3,-328.94,390,400,-10,+0
73,1761643706.377000,1761643706.365500,11.500,-19735.3,-328.92,391,398,-9,-2
74,1761643707.372500,1761643707.367000,5.500,-19734.3,-328.90,390,399,-10,-1
75,1761643708.376500,1761643708.366500,10.000,-19733.3,-328.89,392,398,-8,-2
76,1761643709.376000,1761643709.367000,9.000,-19732.3,-328.87,390,400,-10,+0
77,1761643710.376500,1761643710.369000,7.500,-19731.3,-328.85,393,400,-7,+0
78,1761643711.374500,1761643711.370500,4.000,-19730.3,-328.84,390,398,-10,-2
79,1761643712.378500,1761643712.368500,10.000,-19729.3,-328.82,391,399,-9,-1
80,1761643713.374500,1761643713.368000,6.500,-19728.3,-328.80,391,400,-9,+0
81,1761643714.377500,1761643714.367500,10.000,-19727.3,-328.79,391,401,-9,+1
82,1761643715.377000,1761643715.375500,1.500,-19726.3,-328.77,391,398,-9,-2
83,1761643716.382500,1761643716.370000,12.500,-19725.3,-328.75,391,400,-9,+0
84,1761643717.374500,1761643717.372000,2.500,-19724.3,-328.74,391,398,-9,-2
85,1761643718.382500,1761643718.371500,11.000,-19723.3,-328.72,391,400,-9,+0
86,1761643719.378000,1761643719.371000,7.000,-19722.3,-328.70,390,400,-10,+0
87,1761643720.384500,1761643720.373000,11.500,-19721.3,-328.69,391,398,-9,-2
88,1761643721.379000,1761643721.375000,4.000,-19720.3,-328.67,389,399,-11,-1
89,1761643722.383000,1761643722.372000,11.000,-19719.3,-328.65,390,399,-10,-1
90,1761643723.377500,1761643723.371500,6.000,-19718.3,-328.64,390,399,-10,-1
91,1761643724.384000,1761643724.373500,10.500,-19717.3,-328.62,391,396,-9,-4
92,1761643725.381000,1761643725.371500,9.500,-19716.3,-328.60,390,401,-10,+1
93,1761643726.388000,1761643726.376000,12.000,-19715.3,-328.59,390,400,-10,+0
94,1761643727.383500,1761643727.375000,8.500,-19714.3,-328.57,390,399,-10,-1
95,1761643728.387500,1761643728.376000,11.500,-19713.3,-328.55,389,400,-11,+0
96,1761643729.385500,1761643729.374000,11.500,-19712.3,-328.54,390,399,-10,-1
97,1761643730.384500,1761643730.373500,11.000,-19711.3,-328.52,392,400,-8,+0
98,1761643731.385000,1761643731.375500,9.500,-19710.3,-328.50,391,401,-9,+1
99,1761643732.385000,1761643732.377500,7.500,-19709.3,-328.49,392,399,-8,-1
100,1761643733.387000,1761643733.378000,9.000,-19708.3,-328.47,390,399,-10,-1
101,1761643734.387000,1761643734.377500,9.500,-19707.3,-328.45,393,400,-7,+0
102,1761643735.386500,1761643735.377000,9.500,-19706.3,-328.44,389,399,-11,-1
103,1761643736.389500,1761643736.376500,13.000,-19705.3,-328.42,391,399,-9,-1
104,1761643737.384000,1761643737.376000,8.000,-19704.3,-328.40,391,400,-9,+0
105,1761643738.388000,1761643738.375500,12.500,-19703.3,-328.39,390,399,-10,-1
106,1761643739.387500,1761643739.377000,10.500,-19702.3,-328.37,390,400,-10,+0
107,1761643740.392000,1761643740.380500,11.500,-19701.3,-328.35,391,400,-9,+0
108,1761643741.389000,1761643741.378500,10.500,-19700.3,-328.34,390,399,-10,-1
109,1761643742.389500,1761643742.380500,9.000,-19699.3,-328.32,392,400,-8,+0
110,1761643743.389000,1761643743.378500,10.500,-19698.3,-328.30,394,400,-6,+0
111,1761643744.383500,1761643744.382000,1.500,-19697.3,-328.29,393,399,-7,-1
112,1761643745.389000,1761643745.382000,7.000,-19696.3,-328.27,391,399,-9,-1
113,1761643746.384500,1761643746.380500,4.000,-19695.3,-328.25,394,398,-6,-2
114,1761643747.389500,1761643747.381000,8.500,-19694.3,-328.24,393,399,-7,-1
115,1761643748.385000,1761643748.380500,4.500,-19693.3,-328.22,393,400,-7,+0
116,1761643749.390000,1761643749.384500,5.500,-19692.3,-328.20,392,399,-8,-1
117,1761643750.387000,1761643750.381500,5.500,-19691.3,-328.19,393,398,-7,-2
118,1761643751.390000,1761643751.381500,8.500,-19690.3,-328.17,392,399,-8,-1
119,1761643752.387000,1761643752.382000,5.000,-19689.3,-328.15,392,401,-8,+1
120,1761643753.391500,1761643753.383500,8.000,-19688.3,-328.14,392,400,-8,+0
121,1761643754.386000,1761643754.384000,2.000,-19687.3,-328.12,394,400,-6,+0
122,1761643755.392500,1761643755.388500,4.000,-19686.3,-328.10,393,398,-7,-2
123,1761643756.387000,1761643756.387500,0.500,-19685.3,-328.09,394,398,-6,-2
124,1761643757.389500,1761643757.384000,5.500,-19684.3,-328.07,393,400,-7,+0
125,1761643758.390000,1761643758.386000,4.000,-19683.3,-328.05,392,398,-8,-2
126,1761643759.393000,1761643759.385500,7.500,-19682.3,-328.04,393,400,-7,+0
127,1761643760.388500,1761643760.385000,3.500,-19681.3,-328.02,392,399,-8,-1
128,1761643761.396000,1761643761.386500,9.500,-19680.3,-328.00,390,400,-10,+0
129,1761643762.391500,1761643762.386000,5.500,-19679.3,-327.99,391,398,-9,-2
130,1761643763.396500,1761643763.385500,11.000,-19678.3,-327.97,394,401,-6,+1
131,1761643764.393500,1761643764.388500,5.000,-19677.3,-327.95,393,399,-7,-1
132,1761643765.396500,1761643765.388000,8.500,-19676.3,-327.94,393,400,-7,+0
133,1761643766.393500,1761643766.387500,6.000,-19675.3,-327.92,393,399,-7,-1
134,1761643767.398500,1761643767.387000,11.500,-19674.3,-327.90,392,400,-8,+0
135,1761643768.392000,1761643768.389000,3.000,-19673.3,-327.89,392,400,-8,+0
136,1761643769.398500,1761643769.392000,6.500,-19672.3,-327.87,392,400,-8,+0
137,1761643770.396500,1761643770.394000,2.500,-19671.3,-327.85,391,399,-9,-1
138,1761643771.400500,1761643771.391000,9.500,-19670.3,-327.84,394,400,-6,+0
139,1761643772.397000,1761643772.393000,4.000,-19669.3,-327.82,390,400,-10,+0
140,1761643773.400000,1761643773.392500,7.500,-19668.3,-327.80,392,400,-8,+0
141,1761643774.397000,1761643774.395500,1.500,-19667.3,-327.79,392,399,-8,-1
142,1761643775.401500,1761643775.391500,10.000,-19666.3,-327.77,392,399,-8,-1
143,1761643776.398500,1761643776.392000,6.500,-19665.3,-327.75,392,400,-8,+0
144,1761643777.404000,1761643777.391500,12.500,-19664.3,-327.74,392,398,-8,-2
145,1761643778.397500,1761643778.392000,5.500,-19663.3,-327.72,392,401,-8,+1
146,1761643779.405500,1761643779.395500,10.000,-19662.3,-327.70,390,399,-10,-1
147,1761643780.399000,1761643780.396000,3.000,-19661.3,-327.69,392,400,-8,+0
148,1761643781.406000,1761643781.394500,11.500,-19660.3,-327.67,392,398,-8,-2
149,1761643782.403000,1761643782.395000,8.000,-19659.3,-327.65,391,400,-9,+0
150,1761643783.408500,1761643783.394500,14.000,-19658.3,-327.64,391,399,-9,-1
151,1761643784.402000,1761643784.396500,5.500,-19657.3,-327.62,393,398,-7,-2
152,1761643785.408500,1761643785.396000,12.500,-19656.3,-327.60,389,399,-11,-1
153,1761643786.403000,1761643786.396500,6.500,-19655.3,-327.59,391,400,-9,+0
154,1761643787.407500,1761643787.397500,10.000,-19654.3,-327.57,391,399,-9,-1
155,1761643788.403000,1761643788.397000,6.000,-19653.3,-327.55,391,399,-9,-1
156,1761643789.410000,1761643789.396500,13.500,-19652.3,-327.54,390,399,-10,-1
157,1761643790.404500,1761643790.397000,7.500,-19651.3,-327.52,390,400,-10,+0
158,1761643791.406500,1761643791.396500,10.000,-19650.3,-327.50,390,401,-10,+1
159,1761643792.403500,1761643792.398500,5.000,-19649.3,-327.49,391,399,-9,-1
160,1761643793.409000,1761643793.400500,8.500,-19648.3,-327.47,390,400,-10,+0
161,1761643794.406000,1761643794.402500,3.500,-19647.3,-327.45,391,398,-9,-2
162,1761643795.414000,1761643795.399500,14.500,-19646.3,-327.44,389,400,-11,+0
163,1761643796.406000,1761643796.400000,6.000,-19645.3,-327.42,392,400,-8,+0
164,1761643797.407500,1761643797.398500,9.000,-19644.3,-327.40,392,398,-8,-2
165,1761643798.405500,1761643798.399000,6.500,-19643.3,-327.39,392,401,-8,+1
166,1761643799.409500,1761643799.401000,8.500,-19642.3,-327.37,392,400,-8,+0
167,1761643800.407500,1761643800.402500,5.000,-19641.3,-327.35,391,400,-9,+0
168,1761643801.413000,1761643801.402000,11.000,-19640.3,-327.34,390,400,-10,+0
169,1761643802.408500,1761643802.402500,6.000,-19639.3,-327.32,390,400,-10,+0
170,1761643803.411000,1761643803.402000,9.000,-19638.3,-327.30,391,400,-9,+0
171,1761643804.410500,1761643804.401500,9.000,-19637.3,-327.29,390,398,-10,-2
172,1761643805.414500,1761643805.402500,12.000,-19636.3,-327.27,390,399,-10,-1
173,1761643806.410500,1761643806.405500,5.000,-19635.3,-327.25,388,398,-12,-2
174,1761643807.416000,1761643807.404000,12.000,-19634.2,-327.24,390,397,-10,-3
175,1761643808.410500,1761643808.402000,8.500,-19633.3,-327.22,391,400,-9,+0
176,1761643809.414500,1761643809.404000,10.500,-19632.3,-327.20,391,399,-9,-1
177,1761643810.408000,1761643810.403000,5.000,-19631.3,-327.19,391,400,-9,+0
178,1761643811.413500,1761643811.402500,11.000,-19630.3,-327.17,391,400,-9,+0
179,1761643812.411500,1761643812.403000,8.500,-19629.3,-327.15,391,400,-9,+0
180,1761643813.418000,1761643813.405000,13.000,-19628.2,-327.14,390,397,-10,-3
181,1761643814.413500,1761643814.404500,9.000,-19627.3,-327.12,392,399,-8,-1
182,1761643815.417500,1761643815.406500,11.000,-19626.2,-327.10,391,399,-9,-1
183,1761643816.413000,1761643816.404500,8.500,-19625.3,-327.09,390,400,-10,+0
184,1761643817.420000,1761643817.405000,15.000,-19624.2,-327.07,390,399,-10,-1
185,1761643818.414500,1761643818.407500,7.000,-19623.3,-327.05,391,399,-9,-1
186,1761643819.416500,1761643819.404500,12.000,-19622.2,-327.04,392,399,-8,-1
187,1761643820.413500,1761643820.405000,8.500,-19621.3,-327.02,390,400,-10,+0
188,1761643821.416500,1761643821.407000,9.500,-19620.2,-327.00,392,400,-8,+0
189,1761643822.415000,1761643822.407500,7.500,-19619.3,-326.99,392,400,-8,+0
190,1761643823.418000,1761643823.408500,9.500,-19618.2,-326.97,393,400,-7,+0
191,1761643824.417500,1761643824.410500,7.000,-19617.2,-326.95,392,400,-8,+0
192,1761643825.411000,1761643825.410000,1.000,-19616.3,-326.94,391,400,-9,+0
193,1761643826.416500,1761643826.412000,4.500,-19615.2,-326.92,392,399,-8,-1
194,1761643827.413500,1761643827.409000,4.500,-19614.3,-326.90,391,400,-9,+0
195,1761643828.418000,1761643828.409500,8.500,-19613.2,-326.89,391,399,-9,-1
196,1761643829.412500,1761643829.410500,2.000,-19612.3,-326.87,390,401,-10,+1
197,1761643830.418000,1761643830.412500,5.500,-19611.2,-326.85,392,399,-8,-1
198,1761643831.415000,1761643831.412000,3.000,-19610.3,-326.84,392,399,-8,-1
199,1761643832.422000,1761643832.412500,9.500,-19609.2,-326.82,391,400,-9,+0
200,1761643833.417500,1761643833.413000,4.500,-19608.2,-326.80,390,399,-10,-1
201,1761643834.420500,1761643834.415000,5.500,-19607.2,-326.79,391,400,-9,+0
202,1761643835.417500,1761643835.414500,3.000,-19606.2,-326.77,391,398,-9,-2
203,1761643836.423000,1761643836.417500,5.500,-19605.2,-326.75,391,398,-9,-2
204,1761643837.417500,1761643837.413500,4.000,-19604.2,-326.74,391,397,-9,-3
205,1761643838.423000,1761643838.416500,6.500,-19603.2,-326.72,391,398,-9,-2
206,1761643839.418500,1761643839.418500,0.000,-19602.2,-326.70,393,397,-7,-3
207,1761643840.424000,1761643840.415500,8.500,-19601.2,-326.69,391,401,-9,+1
208,1761643841.421000,1761643841.420000,1.000,-19600.2,-326.67,391,399,-9,-1
209,1761643842.422500,1761643842.418000,4.500,-19599.2,-326.65,394,399,-6,-1
210,1761643843.421000,1761643843.416000,5.000,-19598.2,-326.64,392,399,-8,-1
211,1761643844.425000,1761643844.416500,8.500,-19597.2,-326.62,392,399,-8,-1
212,1761643845.420500,1761643845.417000,3.500,-19596.2,-326.60,391,400,-9,+0
213,1761643846.427000,1761643846.417000,10.000,-19595.2,-326.59,390,400,-10,+0
214,1761643847.421500,1761643847.420000,1.500,-19594.2,-326.57,390,399,-10,-1
215,1761643848.427000,1761643848.415500,11.500,-19593.2,-326.55,391,400,-9,+0
216,1761643849.422500,1761643849.420000,2.500,-19592.2,-326.54,392,398,-8,-2
217,1761643850.429000,1761643850.419000,10.000,-19591.2,-326.52,391,400,-9,+0
218,1761643851.425000,1761643851.420000,5.000,-19590.2,-326.50,391,400,-9,+0
219,1761643852.430500,1761643852.420500,10.000,-19589.2,-326.49,389,400,-11,+0
220,1761643853.425000,1761643853.421500,3.500,-19588.2,-326.47,391,400,-9,+0
221,1761643854.430500,1761643854.421500,9.000,-19587.2,-326.45,391,399,-9,-1
222,1761643855.426000,1761643855.421000,5.000,-19586.2,-326.44,395,400,-5,+0
223,1761643856.428000,1761643856.420500,7.500,-19585.2,-326.42,395,399,-5,-1
224,1761643857.426500,1761643857.421500,5.000,-19584.2,-326.40,395,400,-5,+0
225,1761643858.428500,1761643858.421000,7.500,-19583.2,-326.39,396,399,-4,-1
226,1761643859.427000,1761643859.422000,5.000,-19582.2,-326.37,395,401,-5,+1
227,1761643860.427500,1761643860.425000,2.500,-19581.2,-326.35,395,399,-5,-1
228,1761643861.428500,1761643861.424500,4.000,-19580.2,-326.34,392,399,-8,-1
229,1761643862.431500,1761643862.425000,6.500,-19579.2,-326.32,393,398,-7,-2
230,1761643863.428500,1761643863.423500,5.000,-19578.2,-326.30,391,400,-9,+0
231,1761643864.434000,1761643864.423000,11.000,-19577.2,-326.29,391,400,-9,+0
232,1761643865.428500,1761643865.423500,5.000,-19576.2,-326.27,390,401,-10,+1
233,1761643866.434000,1761643866.426000,8.000,-19575.2,-326.25,392,399,-8,-1
234,1761643867.432000,1761643867.426500,5.500,-19574.2,-326.24,394,400,-6,+0
235,1761643868.434000,1761643868.424500,9.500,-19573.2,-326.22,393,399,-7,-1
236,1761643869.429500,1761643869.425000,4.500,-19572.2,-326.20,393,401,-7,+1
237,1761643870.437500,1761643870.427000,10.500,-19571.2,-326.19,394,400,-6,+0
238,1761643871.433500,1761643871.426500,7.000,-19570.2,-326.17,392,398,-8,-2
239,1761643872.437500,1761643872.427000,10.500,-19569.2,-326.15,392,400,-8,+0
240,1761643873.434500,1761643873.430000,4.500,-19568.2,-326.14,392,398,-8,-2
241,1761643874.437500,1761643874.427000,10.500,-19567.2,-326.12,392,401,-8,+1
242,1761643875.434000,1761643875.433500,0.500,-19566.2,-326.10,391,399,-9,-1
243,1761643876.442500,1761643876.429500,13.000,-19565.2,-326.09,390,398,-10,-2
244,1761643877.437000,1761643877.431000,6.000,-19564.2,-326.07,390,398,-10,-2
245,1761643878.443500,1761643878.431500,12.000,-19563.2,-326.05,391,400,-9,+0
246,1761643879.438000,1761643879.429500,8.500,-19562.2,-326.04,393,399,-7,-1
247,1761643880.443500,1761643880.431500,12.000,-19561.2,-326.02,391,399,-9,-1
248,1761643881.435500,1761643881.432000,3.500,-19560.2,-326.00,390,400,-10,+0
249,1761643882.440000,1761643882.433000,7.000,-19559.2,-325.99,393,399,-7,-1
250,1761643883.439500,1761643883.432500,7.000,-19558.2,-325.97,392,400,-8,+0
251,1761643884.443500,1761643884.431500,12.000,-19557.2,-325.95,391,399,-9,-1
252,1761643885.436500,1761643885.432000,4.500,-19556.2,-325.94,394,397,-6,-3
253,1761643886.445000,1761643886.431500,13.500,-19555.2,-325.92,392,399,-8,-1
254,1761643887.438000,1761643887.437000,1.000,-19554.2,-325.90,392,399,-8,-1
255,1761643888.445500,1761643888.434000,11.500,-19553.2,-325.89,393,399,-7,-1
256,1761643889.442000,1761643889.433500,8.500,-19552.2,-325.87,390,399,-10,-1
257,1761643890.446000,1761643890.435500,10.500,-19551.2,-325.85,391,400,-9,+0
258,1761643891.445000,1761643891.435000,10.000,-19550.2,-325.84,391,401,-9,+1
259,1761643892.448000,1761643892.437000,11.000,-19549.2,-325.82,389,399,-11,-1
260,1761643893.443500,1761643893.437500,6.000,-19548.2,-325.80,391,400,-9,+0
261,1761643894.449000,1761643894.437000,12.000,-19547.2,-325.79,392,400,-8,+0
262,1761643895.446000,1761643895.436500,9.500,-19546.2,-325.77,388,399,-12,-1
263,1761643896.451500,1761643896.441000,10.500,-19545.2,-325.75,390,399,-10,-1
264,1761643897.446000,1761643897.441500,4.500,-19544.2,-325.74,391,398,-9,-2
265,1761643898.451500,1761643898.439500,12.000,-19543.2,-325.72,389,400,-11,+0
266,1761643899.448500,1761643899.439000,9.500,-19542.2,-325.70,389,400,-11,+0
267,1761643900.449000,1761643900.439500,9.500,-19541.2,-325.69,391,400,-9,+0
268,1761643901.444500,1761643901.440000,4.500,-19540.2,-325.67,393,400,-7,+0
269,1761643902.452500,1761643902.438500,14.000,-19539.2,-325.65,392,400,-8,+0
270,1761643903.448500,1761643903.444000,4.500,-19538.2,-325.64,390,399,-10,-1
271,1761643904.455000,1761643904.441000,14.000,-19537.2,-325.62,390,400,-10,+0
272,1761643905.449500,1761643905.442500,7.000,-19536.2,-325.60,390,398,-10,-2
273,1761643906.456000,1761643906.440500,15.500,-19535.2,-325.59,391,400,-9,+0
274,1761643907.451500,1761643907.444500,7.000,-19534.2,-325.57,391,398,-9,-2
275,1761643908.454500,1761643908.445000,9.500,-19533.2,-325.55,391,399,-9,-1
276,1761643909.450000,1761643909.447000,3.000,-19532.2,-325.54,391,399,-9,-1
277,1761643910.446000,1761643910.444000,2.000,-19531.2,-325.52,391,400,-9,+0
278,1761643911.454000,1761643911.444500,9.500,-19530.2,-325.50,389,400,-11,+0
279,1761643912.447000,1761643912.443000,4.000,-19529.2,-325.49,389,400,-11,+0
280,1761643913.452500,1761643913.451000,1.500,-19528.2,-325.47,391,398,-9,-2
281,1761643914.449500,1761643914.445500,4.000,-19527.2,-325.45,390,400,-10,+0
282,1761643915.454000,1761643915.446000,8.000,-19526.2,-325.44,391,400,-9,+0
283,1761643916.452000,1761643916.445500,6.500,-19525.2,-325.42,389,400,-11,+0
284,1761643917.454000,1761643917.446500,7.500,-19524.2,-325.40,392,401,-8,+1
285,1761643918.451000,1761643918.449500,1.500,-19523.2,-325.39,390,399,-10,-1
286,1761643919.455500,1761643919.448000,7.500,-19522.2,-325.37,392,399,-8,-1
287,1761643920.453500,1761643920.448500,5.000,-19521.2,-325.35,390,400,-10,+0
288,1761643921.456000,1761643921.446500,9.500,-19520.2,-325.34,392,401,-8,+1
289,1761643922.453000,1761643922.451000,2.000,-19519.2,-325.32,390,397,-10,-3
290,1761643923.458500,1761643923.450500,8.000,-19518.2,-325.30,390,398,-10,-2
291,1761643924.453000,1761643924.450500,2.500,-19517.2,-325.29,391,400,-9,+0
292,1761643925.458500,1761643925.451000,7.500,-19516.2,-325.27,390,399,-10,-1
293,1761643926.455500,1761643926.451000,4.500,-19515.2,-325.25,391,400,-9,+0
294,1761643927.460000,1761643927.451500,8.500,-19514.2,-325.24,390,400,-10,+0
295,1761643928.454500,1761643928.453000,1.500,-19513.2,-325.22,389,399,-11,-1
296,1761643929.462500,1761643929.452500,10.000,-19512.2,-325.20,390,400,-10,+0
297,1761643930.457000,1761643930.452000,5.000,-19511.2,-325.19,390,400,-10,+0
298,1761643931.461500,1761643931.451500,10.000,-19510.2,-325.17,392,400,-8,+0
299,1761643932.458500,1761643932.454500,4.000,-19509.2,-325.15,390,400,-10,+0
300,1761643933.461500,1761643933.454000,7.500,-19508.2,-325.14,394,400,-6,+0
301,1761643934.458000,1761643934.455500,2.500,-19507.2,-325.12,395,399,-5,-1
302,1761643935.466000,1761643935.455000,11.000,-19506.2,-325.10,392,399,-8,-1
303,1761643936.459000,1761643936.455500,3.500,-19505.2,-325.09,391,398,-9,-2
304,1761643937.464500,1761643937.456000,8.500,-19504.2,-325.07,391,399,-9,-1
305,1761643938.460000,1761643938.454000,6.000,-19503.2,-325.05,389,401,-11,+1
306,1761643939.462000,1761643939.457500,4.500,-19502.2,-325.04,391,400,-9,+0
307,1761643940.462500,1761643940.458000,4.500,-19501.2,-325.02,392,399,-8,-1
308,1761643941.467500,1761643941.456500,11.000,-19500.2,-325.00,391,400,-9,+0
309,1761643942.464000,1761643942.458000,6.000,-19499.2,-324.99,390,399,-10,-1
310,1761643943.466000,1761643943.457500,8.500,-19498.2,-324.97,392,400,-8,+0
311,1761643944.463000,1761643944.457000,6.000,-19497.2,-324.95,392,400,-8,+0
312,1761643945.467000,1761643945.456500,10.500,-19496.2,-324.94,393,399,-7,-1
313,1761643946.465000,1761643946.458500,6.500,-19495.2,-324.92,390,399,-10,-1
314,1761643947.468000,1761643947.458000,10.000,-19494.2,-324.90,391,399,-9,-1
315,1761643948.465000,1761643948.458500,6.500,-19493.2,-324.89,392,400,-8,+0
316,1761643949.471500,1761643949.458000,13.500,-19492.2,-324.87,391,398,-9,-2
317,1761643950.467000,1761643950.458500,8.500,-19491.2,-324.85,391,399,-9,-1
318,1761643951.471000,1761643951.459500,11.500,-19490.2,-324.84,389,401,-11,+1
319,1761643952.467500,1761643952.465000,2.500,-19489.2,-324.82,388,399,-12,-1
320,1761643953.470000,1761643953.461000,9.000,-19488.2,-324.80,391,400,-9,+0
321,1761643954.465500,1761643954.466500,1.000,-19487.2,-324.79,391,398,-9,-2
322,1761643955.471000,1761643955.462000,9.000,-19486.2,-324.77,391,399,-9,-1
323,1761643956.468000,1761643956.461500,6.500,-19485.2,-324.75,389,400,-11,+0
324,1761643957.473500,1761643957.461000,12.500,-19484.2,-324.74,390,399,-10,-1
325,1761643958.469000,1761643958.460500,8.500,-19483.2,-324.72,389,398,-11,-2
326,1761643959.474000,1761643959.461000,13.000,-19482.2,-324.70,391,400,-9,+0
327,1761643960.470500,1761643960.464000,6.500,-19481.2,-324.69,392,399,-8,-1
328,1761643961.475000,1761643961.462500,12.500,-19480.2,-324.67,390,399,-10,-1
329,1761643962.469500,1761643962.465500,4.000,-19479.2,-324.65,390,399,-10,-1
330,1761643963.472500,1761643963.463500,9.000,-19478.2,-324.64,393,400,-7,+0
331,1761643964.472000,1761643964.464000,8.000,-19477.2,-324.62,393,401,-7,+1
332,1761643965.477000,1761643965.465000,12.000,-19476.2,-324.60,391,400,-9,+0
333,1761643966.474000,1761643966.468000,6.000,-19475.2,-324.59,390,399,-10,-1
334,1761643967.477000,1761643967.465000,12.000,-19474.2,-324.57,392,399,-8,-1
335,1761643968.470000,1761643968.468000,2.000,-19473.2,-324.55,394,398,-6,-2
336,1761643969.477500,1761643969.465000,12.500,-19472.2,-324.54,392,399,-8,-1
337,1761643970.472000,1761643970.465500,6.500,-19471.2,-324.52,391,401,-9,+1
338,1761643971.474500,1761643971.467500,7.000,-19470.2,-324.50,396,400,-4,+0
339,1761643972.476500,1761643972.468000,8.500,-19469.2,-324.49,394,400,-6,+0
340,1761643973.473500,1761643973.468500,5.000,-19468.2,-324.47,392,400,-8,+0
341,1761643974.474500,1761643974.467000,7.500,-19467.2,-324.45,395,400,-5,+0
342,1761643975.473000,1761643975.468000,5.000,-19466.2,-324.44,395,400,-5,+0
343,1761643976.477500,1761643976.467500,10.000,-19465.2,-324.42,391,399,-9,-1
344,1761643977.472000,1761643977.467000,5.000,-19464.2,-324.40,393,401,-7,+1
345,1761643978.479000,1761643978.470500,8.500,-19463.2,-324.39,391,400,-9,+0
346,1761643979.476000,1761643979.471000,5.000,-19462.2,-324.37,390,400,-10,+0
347,1761643980.481500,1761643980.469500,12.000,-19461.2,-324.35,390,398,-10,-2
348,1761643981.476000,1761643981.470000,6.000,-19460.2,-324.34,390,400,-10,+0
349,1761643982.479000,1761643982.469500,9.500,-19459.2,-324.32,393,400,-7,+0
350,1761643983.478500,1761643983.473500,5.000,-19458.2,-324.30,389,398,-11,-2
351,1761643984.481000,1761643984.473000,8.000,-19457.2,-324.29,391,400,-9,+0
352,1761643985.482000,1761643985.472500,9.500,-19456.2,-324.27,391,400,-9,+0
353,1761643986.482000,1761643986.472000,10.000,-19455.2,-324.25,392,400,-8,+0
354,1761643987.480000,1761643987.471000,9.000,-19454.2,-324.24,390,399,-10,-1
355,1761643988.482000,1761643988.471500,10.500,-19453.2,-324.22,391,400,-9,+0
356,1761643989.477500,1761643989.474500,3.000,-19452.2,-324.20,394,399,-6,-1
357,1761643990.485500,1761643990.474000,11.500,-19451.2,-324.19,390,399,-10,-1
358,1761643991.482000,1761643991.474500,7.500,-19450.2,-324.17,390,400,-10,+0
359,1761643992.487000,1761643992.474000,13.000,-19449.2,-324.15,390,399,-10,-1
360,1761643993.482500,1761643993.474500,8.000,-19448.2,-324.14,391,401,-9,+1
361,1761643994.488000,1761643994.475500,12.500,-19447.2,-324.12,389,399,-11,-1
362,1761643995.481000,1761643995.477000,4.000,-19446.2,-324.10,391,400,-9,+0
363,1761643996.489500,1761643996.475500,14.000,-19445.2,-324.09,390,399,-10,-1
364,1761643997.483000,1761643997.478500,4.500,-19444.2,-324.07,390,397,-10,-3
365,1761643998.488000,1761643998.477000,11.000,-19443.2,-324.05,392,401,-8,+1
366,1761643999.484000,1761643999.478500,5.500,-19442.2,-324.04,393,399,-7,-1
367,1761644000.492000,1761644000.479500,12.500,-19441.2,-324.02,389,399,-11,-1
368,1761644001.486500,1761644001.478500,8.000,-19440.2,-324.00,392,400,-8,+0
369,1761644002.488500,1761644002.479500,9.000,-19439.2,-323.99,458,199,+58,-201
789,1761644422.634500,1761644422.628500,6.000,-19019.0,-316.98,391,399,-9,-1
790,1761644423.633500,1761644423.627500,6.000,-19018.0,-316.97,390,400,-10,+0
791,1761644424.634000,1761644424.628000,6.000,-19017.0,-316.95,391,400,-9,+0
792,1761644425.635500,1761644425.629500,6.000,-19016.0,-316.93,392,400,-8,+0
793,1761644426.636000,1761644426.631500,4.500,-19015.0,-316.92,392,400,-8,+0
794,1761644427.635000,1761644427.629500,5.500,-19014.0,-316.90,390,398,-10,-2
795,1761644428.636000,1761644428.630000,6.000,-19013.0,-316.88,391,400,-9,+0
796,1761644429.636000,1761644429.630500,5.500,-19012.0,-316.87,391,400,-9,+0
797,1761644430.636500,1761644430.631000,5.500,-19011.0,-316.85,391,399,-9,-1
798,1761644431.638000,1761644431.631500,6.500,-19010.0,-316.83,390,400,-10,+0
799,1761644432.636000,1761644432.629500,6.500,-19009.0,-316.82,392,400,-8,+0
800,1761644433.638000,1761644433.631500,6.500,-19008.0,-316.80,391,400,-9,+0
801,1761644434.638500,1761644434.632000,6.500,-19007.0,-316.78,391,400,-9,+0
802,1761644435.636500,1761644435.632500,4.000,-19006.0,-316.77,392,400,-8,+0
803,1761644436.638000,1761644436.631500,6.500,-19005.0,-316.75,391,400,-9,+0
804,1761644437.639500,1761644437.634000,5.500,-19004.0,-316.73,390,400,-10,+0
805,1761644438.637000,1761644438.634000,3.000,-19003.0,-316.72,390,399,-10,-1
806,1761644439.642500,1761644439.635500,7.000,-19002.0,-316.70,390,399,-10,-1
807,1761644440.644000,1761644440.633500,10.500,-19001.0,-316.68,390,400,-10,+0
808,1761644441.642000,1761644441.634000,8.000,-19000.0,-316.67,392,400,-8,+0
809,1761644442.642500,1761644442.634000,8.500,-18999.0,-316.65,389,401,-11,+1
810,1761644443.641500,1761644443.637000,4.500,-18998.0,-316.63,390,400,-10,+0
811,1761644444.649500,1761644444.636000,13.500,-18997.0,-316.62,388,400,-12,+0
812,1761644445.641500,1761644445.636000,5.500,-18996.0,-316.60,390,400,-10,+0
813,1761644446.643500,1761644446.635500,8.000,-18995.0,-316.58,390,400,-10,+0
814,1761644447.643000,1761644447.636000,7.000,-18994.0,-316.57,390,400,-10,+0
815,1761644448.643500,1761644448.638000,5.500,-18993.0,-316.55,390,400,-10,+0
816,1761644449.643000,1761644449.638500,4.500,-18992.0,-316.53,392,399,-8,-1
817,1761644450.643500,1761644450.639000,4.500,-18991.0,-316.52,391,400,-9,+0
818,1761644451.641500,1761644451.639500,2.000,-18990.0,-316.50,390,399,-10,-1
819,1761644452.644500,1761644452.640000,4.500,-18989.0,-316.48,390,400,-10,+0
820,1761644453.644500,1761644453.638000,6.500,-18988.0,-316.47,390,400,-10,+0
821,1761644454.647500,1761644454.639500,8.000,-18987.0,-316.45,389,401,-11,+1
822,1761644455.645500,1761644455.642000,3.500,-18986.0,-316.43,390,400,-10,+0
823,1761644456.645000,1761644456.639500,5.500,-18985.0,-316.42,392,400,-8,+0
824,1761644457.645500,1761644457.640000,5.500,-18984.0,-316.40,392,400,-8,+0
825,1761644458.647000,1761644458.641500,5.500,-18983.0,-316.38,388,400,-12,+0
826,1761644459.647000,1761644459.643500,3.500,-18982.0,-316.37,392,399,-8,-1
827,1761644460.650000,1761644460.641500,8.500,-18981.0,-316.35,390,401,-10,+1
828,1761644461.649000,1761644461.644500,4.500,-18980.0,-316.33,390,399,-10,-1
829,1761644462.649500,1761644462.643500,6.000,-18979.0,-316.32,389,399,-11,-1
830,1761644463.648500,1761644463.644000,4.500,-18978.0,-316.30,390,400,-10,+0
831,1761644464.650000,1761644464.643000,7.000,-18977.0,-316.28,391,400,-9,+0
832,1761644465.651500,1761644465.642500,9.000,-18976.0,-316.27,390,400,-10,+0
833,1761644466.652000,1761644466.644000,8.000,-18975.0,-316.25,392,400,-8,+0
834,1761644467.651000,1761644467.642000,9.000,-18974.0,-316.23,390,400,-10,+0
835,1761644468.652500,1761644468.643000,9.500,-18973.0,-316.22,392,399,-8,-1
836,1761644469.649500,1761644469.646000,3.500,-18972.0,-316.20,391,398,-9,-2
837,1761644470.652500,1761644470.646500,6.000,-18971.0,-316.18,390,399,-10,-1
838,1761644471.649500,1761644471.646000,3.500,-18970.0,-316.17,391,400,-9,+0
839,1761644472.648500,1761644472.645000,3.500,-18969.0,-316.15,393,400,-7,+0
840,1761644473.649000,1761644473.644500,4.500,-18968.0,-316.13,390,400,-10,+0
841,1761644474.648000,1761644474.645000,3.000,-18967.0,-316.12,392,400,-8,+0
842,1761644475.649000,1761644475.645500,3.500,-18966.0,-316.10,391,400,-9,+0
843,1761644476.651000,1761644476.647000,4.000,-18965.0,-316.08,390,400,-10,+0
844,1761644477.654000,1761644477.646500,7.500,-18964.0,-316.07,389,400,-11,+0
845,1761644478.652000,1761644478.647000,5.000,-18963.0,-316.05,391,400,-9,+0
846,1761644479.654500,1761644479.647500,7.000,-18962.0,-316.03,389,400,-11,+0
847,1761644480.652500,1761644480.647500,5.000,-18961.0,-316.02,390,399,-10,-1
848,1761644481.653000,1761644481.648000,5.000,-18960.0,-316.00,392,400,-8,+0
849,1761644482.652500,1761644482.647000,5.500,-18959.0,-315.98,393,401,-7,+1
850,1761644483.653000,1761644483.651000,2.000,-18958.0,-315.97,392,400,-8,+0
851,1761644484.653000,1761644484.648500,4.500,-18957.0,-315.95,392,400,-8,+0
852,1761644485.654500,1761644485.649000,5.500,-18956.0,-315.93,390,399,-10,-1
853,1761644486.654500,1761644486.649500,5.000,-18955.0,-315.92,391,398,-9,-2
854,1761644487.658500,1761644487.648500,10.000,-18954.0,-315.90,391,401,-9,+1
855,1761644488.656500,1761644488.651000,5.500,-18953.0,-315.88,391,400,-9,+0
856,1761644489.659000,1761644489.652500,6.500,-18952.0,-315.87,390,400,-10,+0
857,1761644490.657500,1761644490.651500,6.000,-18951.0,-315.85,392,400,-8,+0
858,1761644491.658000,1761644491.652000,6.000,-18950.0,-315.83,391,401,-9,+1
859,1761644492.658500,1761644492.655000,3.500,-18949.0,-315.82,389,399,-11,-1
860,1761644493.660000,1761644493.654000,6.000,-18948.0,-315.80,391,400,-9,+0
861,1761644494.660500,1761644494.656500,4.000,-18947.0,-315.78,393,399,-7,-1
862,1761644495.660500,1761644495.654000,6.500,-18946.0,-315.77,393,400,-7,+0
863,1761644496.660500,1761644496.655500,5.000,-18945.0,-315.75,393,400,-7,+0
864,1761644497.659500,1761644497.653500,6.000,-18944.0,-315.73,393,400,-7,+0
865,1761644498.658500,1761644498.657500,1.000,-18943.0,-315.72,391,398,-9,-2
866,1761644499.661500,1761644499.656500,5.000,-18942.0,-315.70,393,400,-7,+0
867,1761644500.661000,1761644500.657000,4.000,-18941.0,-315.68,390,399,-10,-1
868,1761644501.659000,1761644501.656000,3.000,-18940.0,-315.67,392,400,-8,+0
869,1761644502.664000,1761644502.656500,7.500,-18939.0,-315.65,392,400,-8,+0
870,1761644503.663500,1761644503.657000,6.500,-18938.0,-315.63,393,400,-7,+0
871,1761644504.661500,1761644504.655000,6.500,-18937.0,-315.62,394,400,-6,+0
872,1761644505.661000,1761644505.655500,5.500,-18936.0,-315.60,394,401,-6,+1
873,1761644506.660500,1761644506.659000,1.500,-18935.0,-315.58,389,400,-11,+0
874,1761644507.660000,1761644507.659500,0.500,-18934.0,-315.57,395,400,-5,+0
875,1761644508.663000,1761644508.660000,3.000,-18933.0,-315.55,392,400,-8,+0
876,1761644509.663000,1761644509.658000,5.000,-18932.0,-315.53,392,400,-8,+0
877,1761644510.663000,1761644510.657000,6.000,-18931.0,-315.52,392,399,-8,-1
878,1761644511.663500,1761644511.657500,6.000,-18930.0,-315.50,390,399,-10,-1
879,1761644512.664000,1761644512.657000,7.000,-18929.0,-315.48,389,401,-11,+1
880,1761644513.665500,1761644513.660000,5.500,-18928.0,-315.47,391,400,-9,+0
881,1761644514.666000,1761644514.660500,5.500,-18927.0,-315.45,390,400,-10,+0
882,1761644515.666500,1761644515.661000,5.500,-18926.0,-315.43,390,400,-10,+0
883,1761644516.668000,1761644516.661500,6.500,-18925.0,-315.42,389,401,-11,+1
884,1761644517.668500,1761644517.662500,6.000,-18924.0,-315.40,390,399,-10,-1
885,1761644518.667500,1761644518.664000,3.500,-18923.0,-315.38,393,398,-7,-2
886,1761644519.668000,1761644519.663000,5.000,-18922.0,-315.37,394,399,-6,-1
887,1761644520.671000,1761644520.663500,7.500,-18921.0,-315.35,389,399,-11,-1
888,1761644521.670000,1761644521.666500,3.500,-18920.0,-315.33,391,398,-9,-2
889,1761644522.670500,1761644522.663500,7.000,-18919.0,-315.32,390,401,-10,+1
890,1761644523.668500,1761644523.664000,4.500,-18918.0,-315.30,391,399,-9,-1
891,1761644524.671500,1761644524.664500,7.000,-18917.0,-315.28,391,400,-9,+0
892,1761644525.670500,1761644525.664000,6.500,-18916.0,-315.27,390,400,-10,+0
893,1761644526.671000,1761644526.664000,7.000,-18915.0,-315.25,391,400,-9,+0
894,1761644527.671500,1761644527.665500,6.000,-18914.0,-315.23,391,400,-9,+0
895,1761644528.669500,1761644528.667000,2.500,-18913.0,-315.22,389,400,-11,+0
896,1761644529.670000,1761644529.667500,2.500,-18912.0,-315.20,389,400,-11,+0
897,1761644530.670500,1761644530.666500,4.000,-18911.0,-315.18,391,399,-9,-1
898,1761644531.674500,1761644531.667000,7.500,-18910.0,-315.17,390,400,-10,+0
899,1761644532.672500,1761644532.668500,4.000,-18909.0,-315.15,393,401,-7,+1
900,1761644533.674500,1761644533.670500,4.000,-18908.0,-315.13,392,399,-8,-1
901,1761644534.673500,1761644534.669500,4.000,-18907.0,-315.12,392,400,-8,+0
902,1761644535.671500,1761644535.670000,1.500,-18906.0,-315.10,392,400,-8,+0
903,1761644536.674500,1761644536.670500,4.000,-18905.0,-315.08,389,400,-11,+0
904,1761644537.674000,1761644537.670500,3.500,-18904.0,-315.07,389,400,-11,+0
905,1761644538.673000,1761644538.669000,4.000,-18903.0,-315.05,390,400,-10,+0
906,1761644539.674500,1761644539.668500,6.000,-18902.0,-315.03,391,398,-9,-2
907,1761644540.677500,1761644540.669000,8.500,-18901.0,-315.02,390,400,-10,+0
908,1761644541.675000,1761644541.670500,4.500,-18900.0,-315.00,390,397,-10,-3
909,1761644542.676500,1761644542.670500,6.000,-18899.0,-314.98,392,398,-8,-2
910,1761644543.676000,1761644543.672500,3.500,-18898.0,-314.97,390,400,-10,+0
911,1761644544.675000,1761644544.670500,4.500,-18897.0,-314.95,392,399,-8,-1
912,1761644545.679000,1761644545.672000,7.000,-18896.0,-314.93,389,400,-11,+0
913,1761644546.676500,1761644546.672000,4.500,-18895.0,-314.92,391,399,-9,-1
914,1761644547.678500,1761644547.672000,6.500,-18894.0,-314.90,392,400,-8,+0
915,1761644548.677500,1761644548.673500,4.000,-18893.0,-314.88,391,400,-9,+0
916,1761644549.676500,1761644549.674000,2.500,-18892.0,-314.87,390,399,-10,-1
917,1761644550.680000,1761644550.674500,5.500,-18891.0,-314.85,390,399,-10,-1
918,1761644551.679500,1761644551.675000,4.500,-18890.0,-314.83,392,400,-8,+0
919,1761644552.680000,1761644552.674500,5.500,-18889.0,-314.82,391,400,-9,+0
920,1761644553.680500,1761644553.673500,7.000,-18888.0,-314.80,390,401,-10,+1
921,1761644554.678500,1761644554.675500,3.000,-18887.0,-314.78,389,400,-11,+0
922,1761644555.679000,1761644555.677000,2.000,-18886.0,-314.77,391,400,-9,+0
923,1761644556.679500,1761644556.676500,3.000,-18885.0,-314.75,390,399,-10,-1
924,1761644557.682500,1761644557.678500,4.000,-18884.0,-314.73,389,400,-11,+0
925,1761644558.680500,1761644558.679000,1.500,-18883.0,-314.72,390,400,-10,+0
926,1761644559.682500,1761644559.679500,3.000,-18882.0,-314.70,392,400,-8,+0
927,1761644560.683000,1761644560.680000,3.000,-18881.0,-314.68,391,400,-9,+0
928,1761644561.683500,1761644561.678000,5.500,-18880.0,-314.67,388,400,-12,+0
929,1761644562.682500,1761644562.678500,4.000,-18879.0,-314.65,392,400,-8,+0
930,1761644563.684500,1761644563.680000,4.500,-18878.0,-314.63,390,401,-10,+1
931,1761644564.682500,1761644564.680500,2.000,-18877.0,-314.62,393,400,-7,+0
932,1761644565.685500,1761644565.681000,4.500,-18876.0,-314.60,394,400,-6,+0
933,1761644566.684500,1761644566.681500,3.000,-18875.0,-314.58,393,400,-7,+0
934,1761644567.687500,1761644567.679500,8.000,-18874.0,-314.57,392,400,-8,+0
935,1761644568.686000,1761644568.681000,5.000,-18873.0,-314.55,392,401,-8,+1
936,1761644569.688000,1761644569.684000,4.000,-18872.0,-314.53,391,400,-9,+0
937,1761644570.687500,1761644570.683000,4.500,-18871.0,-314.52,391,400,-9,+0
938,1761644571.688000,1761644571.682500,5.500,-18870.0,-314.50,391,399,-9,-1
939,1761644572.688000,1761644572.684000,4.000,-18869.0,-314.48,391,400,-9,+0
940,1761644573.688000,1761644573.683000,5.000,-18868.0,-314.47,390,400,-10,+0
941,1761644574.687500,1761644574.684500,3.000,-18867.0,-314.45,393,400,-7,+0
942,1761644575.689000,1761644575.686500,2.500,-18866.0,-314.43,393,400,-7,+0
943,1761644576.690500,1761644576.684500,6.000,-18865.0,-314.42,391,400,-9,+0
944,1761644577.689500,1761644577.685000,4.500,-18864.0,-314.40,391,400,-9,+0
945,1761644578.691000,1761644578.684000,7.000,-18863.0,-314.38,391,399,-9,-1
946,1761644579.694000,1761644579.684500,9.500,-18862.0,-314.37,390,399,-10,-1
947,1761644580.691000,1761644580.686000,5.000,-18861.0,-314.35,393,400,-7,+0
948,1761644581.691500,1761644581.684000,7.500,-18860.0,-314.33,391,400,-9,+0
949,1761644582.693500,1761644582.685500,8.000,-18859.0,-314.32,392,401,-8,+1
950,1761644583.697500,1761644583.688500,9.000,-18858.0,-314.30,389,400,-11,+0
951,1761644584.690500,1761644584.686500,4.000,-18857.0,-314.28,393,400,-7,+0
952,1761644585.693500,1761644585.687000,6.500,-18856.0,-314.27,392,400,-8,+0
953,1761644586.693500,1761644586.687500,6.000,-18855.0,-314.25,393,401,-7,+1
954,1761644587.693000,1761644587.690500,2.500,-18854.0,-314.23,393,400,-7,+0
955,1761644588.694000,1761644588.689500,4.500,-18853.0,-314.22,391,399,-9,-1
956,1761644589.695500,1761644589.688500,7.000,-18852.0,-314.20,389,400,-11,+0
957,1761644590.694500,1761644590.690000,4.500,-18851.0,-314.18,392,400,-8,+0
958,1761644591.696500,1761644591.689000,7.500,-18850.0,-314.17,390,400,-10,+0
959,1761644592.694500,1761644592.689000,5.500,-18849.0,-314.15,391,401,-9,+1
960,1761644593.697500,1761644593.693000,4.500,-18848.0,-314.13,389,399,-11,-1
961,1761644594.694000,1761644594.692000,2.000,-18847.0,-314.12,392,400,-8,+0
962,1761644595.698000,1761644595.691000,7.000,-18846.0,-314.10,391,399,-9,-1
963,1761644596.696000,1761644596.691000,5.000,-18845.0,-314.08,390,400,-10,+0
964,1761644597.696500,1761644597.691500,5.000,-18844.0,-314.07,390,399,-10,-1
965,1761644598.694500,1761644598.692500,2.000,-18843.0,-314.05,390,400,-10,+0
966,1761644599.697500,1761644599.690500,7.000,-18842.0,-314.03,390,401,-10,+1
967,1761644600.697000,1761644600.695000,2.000,-18841.0,-314.02,391,400,-9,+0
968,1761644601.697500,1761644601.693000,4.500,-18840.0,-314.00,390,400,-10,+0
969,1761644602.700500,1761644602.694500,6.000,-18839.0,-313.98,390,400,-10,+0
970,1761644603.698500,1761644603.692500,6.000,-18838.0,-313.97,391,400,-9,+0
971,1761644604.700000,1761644604.693000,7.000,-18837.0,-313.95,391,400,-9,+0
972,1761644605.702000,1761644605.695000,7.000,-18836.0,-313.93,391,401,-9,+1
973,1761644606.705000,1761644606.697500,7.500,-18835.0,-313.92,392,399,-8,-1
974,1761644607.705500,1761644607.696000,9.500,-18834.0,-313.90,390,400,-10,+0
975,1761644608.701000,1761644608.696500,4.500,-18833.0,-313.88,391,399,-9,-1
976,1761644609.703000,1761644609.696000,7.000,-18832.0,-313.87,389,400,-11,+0
977,1761644610.705000,1761644610.695500,9.500,-18831.0,-313.85,391,400,-9,+0
978,1761644611.705500,1761644611.697000,8.500,-18830.0,-313.83,390,401,-10,+1
979,1761644612.707000,1761644612.698500,8.500,-18829.0,-313.82,780,400,+380,+0
981,1761644614.702000,1761644614.699000,3.000,-18827.0,-313.78,389,399,-11,-1
982,1761644615.701000,1761644615.699500,1.500,-18826.0,-313.77,391,400,-9,+0
983,1761644616.701000,1761644616.698000,3.000,-18825.0,-313.75,394,400,-6,+0
984,1761644617.700500,1761644617.697500,3.000,-18824.0,-313.73,395,401,-5,+1
985,1761644618.702500,1761644618.699500,3.000,-18823.0,-313.72,392,400,-8,+0
986,1761644619.702000,1761644619.700500,1.500,-18822.0,-313.70,394,400,-6,+0
987,1761644620.703000,1761644620.700000,3.000,-18821.0,-313.68,393,400,-7,+0
988,1761644621.705000,1761644621.699500,5.500,-18820.0,-313.67,393,400,-7,+0
989,1761644622.704000,1761644622.701000,3.000,-18819.0,-313.65,391,400,-9,+0
990,1761644623.703000,1761644623.700000,3.000,-18818.0,-313.63,391,399,-9,-1
991,1761644624.705000,1761644624.701000,4.000,-18817.0,-313.62,392,401,-8,+1
992,1761644625.709000,1761644625.702500,6.500,-18816.0,-313.60,390,400,-10,+0
993,1761644626.706000,1761644626.702000,4.000,-18815.0,-313.58,394,399,-6,-1
994,1761644627.709000,1761644627.702500,6.500,-18814.0,-313.57,391,400,-9,+0
995,1761644628.708500,1761644628.702000,6.500,-18813.0,-313.55,390,400,-10,+0
996,1761644629.709000,1761644629.702500,6.500,-18812.0,-313.53,391,400,-9,+0
997,1761644630.711000,1761644630.703000,8.000,-18811.0,-313.52,391,400,-9,+0
998,1761644631.709000,1761644631.706000,3.000,-18810.0,-313.50,392,400,-8,+0
999,1761644632.712000,1761644632.704000,8.000,-18809.0,-313.48,391,400,-9,+0
1000,1761644633.714000,1761644633.703500,10.500,-18808.0,-313.47,390,399,-10,-1
1001,1761644634.709500,1761644634.705000,4.500,-18807.0,-313.45,391,399,-9,-1
1002,1761644635.712500,1761644635.704000,8.500,-18806.0,-313.43,391,401,-9,+1
1003,1761644636.717500,1761644636.707500,10.000,-18804.9,-313.42,389,400,-11,+0
1004,1761644637.710500,1761644637.706500,4.000,-18804.0,-313.40,393,399,-7,-1
1005,1761644638.713500,1761644638.708000,5.500,-18803.0,-313.38,390,400,-10,+0
1006,1761644639.715500,1761644639.707000,8.500,-18802.0,-313.37,390,399,-10,-1
1007,1761644640.714500,1761644640.707500,7.000,-18801.0,-313.35,391,400,-9,+0
1008,1761644641.717500,1761644641.708000,9.500,-18799.9,-313.33,390,400,-10,+0
1009,1761644642.716500,1761644642.706000,10.500,-18798.9,-313.32,390,401,-10,+1
1010,1761644643.717000,1761644643.709000,8.000,-18797.9,-313.30,391,400,-9,+0
1011,1761644644.716000,1761644644.708500,7.500,-18796.9,-313.28,393,399,-7,-1
1012,1761644645.716500,1761644645.711500,5.000,-18795.9,-313.27,391,399,-9,-1
1013,1761644646.718000,1761644646.710000,8.000,-18794.9,-313.25,390,399,-10,-1
1014,1761644647.713500,1761644647.709000,4.500,-18794.0,-313.23,391,398,-9,-2
1015,1761644648.715500,1761644648.710000,5.500,-18793.0,-313.22,391,401,-9,+1
1016,1761644649.716000,1761644649.712500,3.500,-18791.9,-313.20,389,400,-11,+0
1017,1761644650.717500,1761644650.712500,5.000,-18790.9,-313.18,391,399,-9,-1
1018,1761644651.718000,1761644651.711500,6.500,-18789.9,-313.17,390,400,-10,+0
1019,1761644652.719500,1761644652.711000,8.500,-18788.9,-313.15,391,400,-9,+0
1020,1761644653.717000,1761644653.715000,2.000,-18787.9,-313.13,390,400,-10,+0
1021,1761644654.721000,1761644654.714000,7.000,-18786.9,-313.12,390,400,-10,+0
1022,1761644655.720000,1761644655.714000,6.000,-18785.9,-313.10,392,400,-8,+0
1023,1761644656.721500,1761644656.714500,7.000,-18784.9,-313.08,392,400,-8,+0
1024,1761644657.719500,1761644657.712500,7.000,-18783.9,-313.07,391,400,-9,+0
1025,1761644658.720500,1761644658.712500,8.000,-18782.9,-313.05,389,400,-11,+0
1026,1761644659.720500,1761644659.714000,6.500,-18781.9,-313.03,393,401,-7,+1
1027,1761644660.720000,1761644660.716500,3.500,-18780.9,-313.02,392,400,-8,+0
1028,1761644661.721500,1761644661.718000,3.500,-18779.9,-313.00,392,398,-8,-2
1029,1761644662.719500,1761644662.716000,3.500,-18778.9,-312.98,391,400,-9,+0
1030,1761644663.722000,1761644663.716500,5.500,-18777.9,-312.97,391,399,-9,-1
1031,1761644664.722500,1761644664.717000,5.500,-18776.9,-312.95,389,400,-11,+0
1032,1761644665.721000,1761644665.716500,4.500,-18775.9,-312.93,391,399,-9,-1
1033,1761644666.722500,1761644666.717000,5.500,-18774.9,-312.92,390,400,-10,+0
1034,1761644667.724000,1761644667.717000,7.000,-18773.9,-312.90,391,400,-9,+0
1035,1761644668.727000,1761644668.719000,8.000,-18772.9,-312.88,392,399,-8,-1
1036,1761644669.724500,1761644669.719000,5.500,-18771.9,-312.87,389,400,-11,+0
1037,1761644670.726000,1761644670.718000,8.000,-18770.9,-312.85,390,401,-10,+1
1038,1761644671.727500,1761644671.719500,8.000,-18769.9,-312.83,392,400,-8,+0
1039,1761644672.724000,1761644672.721000,3.000,-18768.9,-312.82,391,399,-9,-1
1040,1761644673.729000,1761644673.721000,8.000,-18767.9,-312.80,392,400,-8,+0
1041,1761644674.727000,1761644674.720000,7.000,-18766.9,-312.78,389,400,-11,+0
1042,1761644675.727500,1761644675.719500,8.000,-18765.9,-312.77,391,400,-9,+0
1043,1761644676.725500,1761644676.721000,4.500,-18764.9,-312.75,392,400,-8,+0
1044,1761644677.727000,1761644677.719500,7.500,-18763.9,-312.73,393,401,-7,+1
1045,1761644678.726500,1761644678.722000,4.500,-18762.9,-312.72,388,400,-12,+0
1046,1761644679.728000,1761644679.722500,5.500,-18761.9,-312.70,390,400,-10,+0
1047,1761644680.727000,1761644680.722000,5.000,-18760.9,-312.68,391,400,-9,+0
1048,1761644681.728500,1761644681.723500,5.000,-18759.9,-312.67,390,400,-10,+0
1049,1761644682.729000,1761644682.723000,6.000,-18758.9,-312.65,390,400,-10,+0
1050,1761644683.727000,1761644683.721000,6.000,-18757.9,-312.63,390,400,-10,+0
1051,1761644684.732000,1761644684.724000,8.000,-18756.9,-312.62,389,400,-11,+0
1052,1761644685.730000,1761644685.724500,5.500,-18755.9,-312.60,391,400,-9,+0
1053,1761644686.728000,1761644686.725000,3.000,-18754.9,-312.58,391,398,-9,-2
1054,1761644687.731000,1761644687.725500,5.500,-18753.9,-312.57,389,399,-11,-1
1055,1761644688.732500,1761644688.725000,7.500,-18752.9,-312.55,391,400,-9,+0
1056,1761644689.735500,1761644689.727000,8.500,-18751.9,-312.53,389,400,-11,+0
1057,1761644690.732000,1761644690.728500,3.500,-18750.9,-312.52,389,399,-11,-1
1058,1761644691.732500,1761644691.728000,4.500,-18749.9,-312.50,389,400,-11,+0
1059,1761644692.735000,1761644692.726000,9.000,-18748.9,-312.48,388,400,-12,+0
1060,1761644693.735500,1761644693.728500,7.000,-18747.9,-312.47,388,400,-12,+0
1061,1761644694.733000,1761644694.725500,7.500,-18746.9,-312.45,391,401,-9,+1
1062,1761644695.738500,1761644695.729500,9.000,-18745.9,-312.43,390,399,-10,-1
1063,1761644696.736500,1761644696.732000,4.500,-18744.9,-312.42,388,399,-12,-1
1064,1761644697.738000,1761644697.729500,8.500,-18743.9,-312.40,389,400,-11,+0
1065,1761644698.738000,1761644698.729500,8.500,-18742.9,-312.38,390,399,-10,-1
1066,1761644699.737500,1761644699.732500,5.000,-18741.9,-312.37,392,399,-8,-1
1067,1761644700.735500,1761644700.730000,5.500,-18740.9,-312.35,392,396,-8,-4
1068,1761644701.736500,1761644701.730500,6.000,-18739.9,-312.33,391,398,-9,-2
1069,1761644702.734000,1761644702.730500,3.500,-18738.9,-312.32,393,398,-7,-2
1070,1761644703.735500,1761644703.733000,2.500,-18737.9,-312.30,394,397,-6,-3
1071,1761644704.737000,1761644704.731000,6.000,-18736.9,-312.28,392,399,-8,-1
1072,1761644705.737500,1761644705.731500,6.000,-18735.9,-312.27,392,399,-8,-1
1073,1761644706.739000,1761644706.730500,8.500,-18734.9,-312.25,393,400,-7,+0
1074,1761644707.737000,1761644707.731000,6.000,-18733.9,-312.23,393,401,-7,+1
1075,1761644708.739500,1761644708.733500,6.000,-18732.9,-312.22,393,400,-7,+0
1076,1761644709.738500,1761644709.732500,6.000,-18731.9,-312.20,392,399,-8,-1
1077,1761644710.740000,1761644710.734000,6.000,-18730.9,-312.18,392,400,-8,+0
1078,1761644711.742500,1761644711.734500,8.000,-18729.9,-312.17,389,400,-11,+0
1079,1761644712.740500,1761644712.736500,4.000,-18728.9,-312.15,391,399,-9,-1
1080,1761644713.741000,1761644713.732000,9.000,-18727.9,-312.13,389,401,-11,+1
1081,1761644714.740000,1761644714.735000,5.000,-18726.9,-312.12,391,399,-9,-1
1082,1761644715.740500,1761644715.735500,5.000,-18725.9,-312.10,390,400,-10,+0
1083,1761644716.742000,1761644716.736000,6.000,-18724.9,-312.08,390,400,-10,+0
1084,1761644717.742500,1761644717.734500,8.000,-18723.9,-312.07,392,399,-8,-1
1085,1761644718.744000,1761644718.735500,8.500,-18722.9,-312.05,391,399,-9,-1
1086,1761644719.744000,1761644719.734500,9.500,-18721.9,-312.03,392,401,-8,+1
1087,1761644720.744500,1761644720.738500,6.000,-18720.9,-312.02,391,399,-9,-1
1088,1761644721.744500,1761644721.737500,7.000,-18719.9,-312.00,391,400,-9,+0
1089,1761644722.745000,1761644722.738000,7.000,-18718.9,-311.98,391,400,-9,+0
1090,1761644723.746500,1761644723.738000,8.500,-18717.9,-311.97,391,400,-9,+0
1091,1761644724.745000,1761644724.739000,6.000,-18716.9,-311.95,389,400,-11,+0
1092,1761644725.748000,1761644725.737000,11.000,-18715.9,-311.93,390,400,-10,+0
1093,1761644726.747000,1761644726.738500,8.500,-18714.9,-311.92,390,400,-10,+0
1094,1761644727.746000,1761644727.740000,6.000,-18713.9,-311.90,389,400,-11,+0
1095,1761644728.746000,1761644728.740000,6.000,-18712.9,-311.88,391,400,-9,+0
1096,1761644729.744000,1761644729.741000,3.000,-18711.9,-311.87,393,400,-7,+0
1097,1761644730.746500,1761644730.740500,6.000,-18710.9,-311.85,389,398,-11,-2
1098,1761644731.745500,1761644731.741000,4.500,-18709.9,-311.83,391,400,-9,+0
1099,1761644732.743500,1761644732.741500,2.000,-18708.9,-311.82,391,401,-9,+1
1100,1761644733.749000,1761644733.742000,7.000,-18707.9,-311.80,391,400,-9,+0
1101,1761644734.747000,1761644734.742500,4.500,-18706.9,-311.78,391,399,-9,-1
1102,1761644735.748500,1761644735.742500,6.000,-18705.9,-311.77,391,400,-9,+0
1103,1761644736.748500,1761644736.743000,5.500,-18704.9,-311.75,391,399,-9,-1
1104,1761644737.749000,1761644737.741000,8.000,-18703.9,-311.73,392,401,-8,+1
1105,1761644738.748500,1761644738.744000,4.500,-18702.9,-311.72,390,399,-10,-1
1106,1761644739.748500,1761644739.744500,4.000,-18701.9,-311.70,392,400,-8,+0
1107,1761644740.750000,1761644740.746000,4.000,-18700.9,-311.68,390,400,-10,+0
1108,1761644741.749500,1761644741.745500,4.000,-18699.9,-311.67,393,400,-7,+0
1109,1761644742.751000,1761644742.744500,6.500,-18698.9,-311.65,392,401,-8,+1
1110,1761644743.750000,1761644743.747000,3.000,-18697.9,-311.63,390,400,-10,+0
1111,1761644744.752500,1761644744.747000,5.500,-18696.9,-311.62,393,399,-7,-1
1112,1761644745.750500,1761644745.749000,1.500,-18695.9,-311.60,392,399,-8,-1
1113,1761644746.753000,1761644746.747000,6.000,-18694.9,-311.58,393,400,-7,+0
1114,1761644747.749500,1761644747.746500,3.000,-18693.9,-311.57,393,400,-7,+0
1115,1761644748.753500,1761644748.747500,6.000,-18692.9,-311.55,393,400,-7,+0
1116,1761644749.753000,1761644749.746500,6.500,-18691.9,-311.53,389,399,-11,-1
1117,1761644750.753500,1761644750.747000,6.500,-18690.9,-311.52,390,401,-10,+1
1118,1761644751.758500,1761644751.747500,11.000,-18689.9,-311.50,391,400,-9,+0
1119,1761644752.753500,1761644752.748000,5.500,-18688.9,-311.48,390,399,-10,-1
1120,1761644753.754500,1761644753.747500,7.000,-18687.9,-311.47,390,399,-10,-1
1121,1761644754.755000,1761644754.748000,7.000,-18686.9,-311.45,391,398,-9,-2
1122,1761644755.755500,1761644755.752000,3.500,-18685.9,-311.43,390,400,-10,+0
1123,1761644756.756000,1761644756.751000,5.000,-18684.9,-311.42,389,400,-11,+0
1124,1761644757.755500,1761644757.752500,3.000,-18683.9,-311.40,391,400,-9,+0
1125,1761644758.756000,1761644758.751500,4.500,-18682.9,-311.38,389,400,-11,+0
1126,1761644759.757000,1761644759.750500,6.500,-18681.9,-311.37,391,401,-9,+1
1127,1761644760.756000,1761644760.754500,1.500,-18680.9,-311.35,390,400,-10,+0
1128,1761644761.758000,1761644761.752500,5.500,-18679.9,-311.33,391,400,-9,+0
1129,1761644762.762500,1761644762.754000,8.500,-18678.9,-311.32,395,400,-5,+0
1130,1761644763.756000,1761644763.752000,4.000,-18677.9,-311.30,395,400,-5,+0
1131,1761644764.758500,1761644764.754000,4.500,-18676.9,-311.28,393,400,-7,+0
1132,1761644765.759000,1761644765.753500,5.500,-18675.9,-311.27,393,399,-7,-1
1133,1761644766.758500,1761644766.753000,5.500,-18674.9,-311.25,392,400,-8,+0
1134,1761644767.758000,1761644767.753500,4.500,-18673.9,-311.23,393,401,-7,+1
1135,1761644768.764500,1761644768.756500,8.000,-18672.9,-311.22,389,400,-11,+0
1136,1761644769.756500,1761644769.756000,0.500,-18671.9,-311.20,393,400,-7,+0
1137,1761644770.759500,1761644770.755500,4.000,-18670.9,-311.18,388,400,-12,+0
1138,1761644771.758500,1761644771.756000,2.500,-18669.9,-311.17,392,400,-8,+0
1139,1761644772.759000,1761644772.756500,2.500,-18668.9,-311.15,393,400,-7,+0
1140,1761644773.760500,1761644773.754500,6.000,-18667.9,-311.13,390,400,-10,+0
1141,1761644774.759500,1761644774.756000,3.500,-18666.9,-311.12,392,400,-8,+0
1142,1761644775.762000,1761644775.756500,5.500,-18665.9,-311.10,391,401,-9,+1
1143,1761644776.760000,1761644776.757000,3.000,-18664.9,-311.08,391,400,-9,+0
1144,1761644777.761500,1761644777.757500,4.000,-18663.9,-311.07,391,400,-9,+0
1145,1761644778.762000,1761644778.758000,4.000,-18662.9,-311.05,392,399,-8,-1
1146,1761644779.760000,1761644779.758500,1.500,-18661.9,-311.03,390,400,-10,+0
1147,1761644780.760500,1761644780.758500,2.000,-18660.9,-311.02,392,400,-8,+0
1148,1761644781.763500,1761644781.760000,3.500,-18659.9,-311.00,390,400,-10,+0
1149,1761644782.763000,1761644782.760500,2.500,-18658.9,-310.98,392,400,-8,+0
1150,1761644783.771000,1761644783.761000,10.000,-18657.9,-310.96,389,400,-11,+0
1151,1761644784.766500,1761644784.759000,7.500,-18656.9,-310.95,391,400,-9,+0
1152,1761644785.766000,1761644785.760500,5.500,-18655.9,-310.93,391,399,-9,-1
1153,1761644786.767500,1761644786.760000,7.500,-18654.9,-310.91,390,401,-10,+1
1154,1761644787.767000,1761644787.763000,4.000,-18653.9,-310.90,391,400,-9,+0
1155,1761644788.767000,1761644788.763000,4.000,-18652.9,-310.88,391,400,-9,+0
1156,1761644789.770000,1761644789.761000,9.000,-18651.9,-310.86,390,400,-10,+0
1157,1761644790.769000,1761644790.761500,7.500,-18650.9,-310.85,390,400,-10,+0
1158,1761644791.769500,1761644791.763000,6.500,-18649.9,-310.83,389,400,-11,+0
1159,1761644792.770000,1761644792.763000,7.000,-18648.9,-310.81,388,400,-12,+0
1160,1761644793.771500,1761644793.765500,6.000,-18647.9,-310.80,389,399,-11,-1
1161,1761644794.771000,1761644794.765500,5.500,-18646.9,-310.78,388,400,-12,+0
1162,1761644795.770000,1761644795.764000,6.000,-18645.9,-310.76,390,400,-10,+0
1163,1761644796.770500,1761644796.765000,5.500,-18644.9,-310.75,392,400,-8,+0
1164,1761644797.771000,1761644797.763000,8.000,-18643.9,-310.73,392,400,-8,+0
1165,1761644798.772500,1761644798.763500,9.000,-18642.9,-310.71,391,398,-9,-2
1166,1761644799.775500,1761644799.765000,10.500,-18641.9,-310.70,389,400,-11,+0
1167,1761644800.773500,1761644800.762500,11.000,-18640.9,-310.68,391,399,-9,-1
1168,1761644801.775000,1761644801.766500,8.500,-18639.9,-310.66,389,398,-11,-2
1169,1761644802.779000,1761644802.768000,11.000,-18638.9,-310.65,391,399,-9,-1
1170,1761644803.771500,1761644803.767000,4.500,-18637.9,-310.63,390,401,-10,+1
1171,1761644804.769500,1761644804.769500,0.000,-18636.9,-310.61,389,400,-11,+0
1172,1761644805.773500,1761644805.767500,6.000,-18635.9,-310.60,388,399,-12,-1
1173,1761644806.769500,1761644806.768500,1.000,-18634.9,-310.58,390,399,-10,-1
1174,1761644807.773500,1761644807.770000,3.500,-18633.9,-310.56,390,400,-10,+0
1175,1761644808.777000,1761644808.768500,8.500,-18632.9,-310.55,390,399,-10,-1
1176,1761644809.776500,1761644809.768000,8.500,-18631.9,-310.53,391,400,-9,+0
1177,1761644810.775500,1761644810.769500,6.000,-18630.9,-310.51,390,400,-10,+0
1178,1761644811.777500,1761644811.772000,5.500,-18629.9,-310.50,391,400,-9,+0
1179,1761644812.779000,1761644812.770500,8.500,-18628.9,-310.48,392,399,-8,-1
1180,1761644813.779500,1761644813.771000,8.500,-18627.9,-310.46,391,397,-9,-3
1181,1761644814.777500,1761644814.771500,6.000,-18626.9,-310.45,393,400,-7,+0
1182,1761644815.778000,1761644815.774500,3.500,-18625.9,-310.43,390,399,-10,-1
1183,1761644816.777500,1761644816.772000,5.500,-18624.9,-310.41,392,399,-8,-1
1184,1761644817.779000,1761644817.773500,5.500,-18623.9,-310.40,391,399,-9,-1
1185,1761644818.781500,1761644818.773000,8.500,-18622.9,-310.38,389,399,-11,-1
1186,1761644819.779500,1761644819.774500,5.000,-18621.9,-310.36,392,399,-8,-1
1187,1761644820.781000,1761644820.772500,8.500,-18620.9,-310.35,390,400,-10,+0
1188,1761644821.783500,1761644821.772500,11.000,-18619.9,-310.33,392,401,-8,+1
1189,1761644822.783000,1761644822.775000,8.000,-18618.9,-310.31,389,400,-11,+0
1190,1761644823.783000,1761644823.777000,6.000,-18617.9,-310.30,392,399,-8,-1
1191,1761644824.780000,1761644824.776500,3.500,-18616.9,-310.28,391,399,-9,-1
1192,1761644825.780500,1761644825.774500,6.000,-18615.9,-310.26,391,400,-9,+0
1193,1761644826.781000,1761644826.776500,4.500,-18614.9,-310.25,390,399,-10,-1
1194,1761644827.780500,1761644827.775500,5.000,-18613.9,-310.23,393,401,-7,+1
1195,1761644828.784500,1761644828.778500,6.000,-18612.9,-310.21,391,399,-9,-1
1196,1761644829.785000,1761644829.779000,6.000,-18611.9,-310.20,390,399,-10,-1
1197,1761644830.783000,1761644830.777000,6.000,-18610.9,-310.18,389,399,-11,-1
1198,1761644831.783500,1761644831.776500,7.000,-18609.9,-310.16,390,400,-10,+0
1199,1761644832.785000,1761644832.777500,7.500,-18608.9,-310.15,389,399,-11,-1
1200,1761644833.784500,1761644833.778500,6.000,-18607.9,-310.13,391,398,-9,-2
1201,1761644834.782500,1761644834.779000,3.500,-18606.9,-310.11,390,400,-10,+0
1202,1761644835.786500,1761644835.780500,6.000,-18605.9,-310.10,391,399,-9,-1
1203,1761644836.786500,1761644836.778000,8.500,-18604.9,-310.08,391,401,-9,+1
1204,1761644837.785500,1761644837.780000,5.500,-18603.9,-310.06,393,400,-7,+0
1205,1761644838.781000,1761644838.781500,0.500,-18602.9,-310.05,391,399,-9,-1
1206,1761644839.782500,1761644839.779500,3.000,-18601.9,-310.03,392,400,-8,+0
1207,1761644840.785500,1761644840.780000,5.500,-18600.9,-310.01,391,400,-9,+0
1208,1761644841.786000,1761644841.779000,7.000,-18599.9,-310.00,391,400,-9,+0
1209,1761644842.785000,1761644842.778500,6.500,-18598.9,-309.98,390,400,-10,+0
1210,1761644843.788000,1761644843.779000,9.000,-18597.9,-309.96,388,400,-12,+0
1211,1761644844.786000,1761644844.779500,6.500,-18596.9,-309.95,391,400,-9,+0
1212,1761644845.791500,1761644845.782500,9.000,-18595.9,-309.93,388,400,-12,+0
1213,1761644846.787000,1761644846.783000,4.000,-18594.9,-309.91,392,400,-8,+0
1214,1761644847.789500,1761644847.782500,7.000,-18593.9,-309.90,391,400,-9,+0
1215,1761644848.789000,1761644848.782000,7.000,-18592.9,-309.88,392,400,-8,+0
1216,1761644849.788500,1761644849.781000,7.500,-18591.9,-309.86,392,400,-8,+0
1217,1761644850.786500,1761644850.781500,5.000,-18590.9,-309.85,391,401,-9,+1
1218,1761644851.787000,1761644851.783000,4.000,-18589.9,-309.83,391,400,-9,+0
1219,1761644852.788500,1761644852.782500,6.000,-18588.9,-309.81,391,400,-9,+0
1220,1761644853.789000,1761644853.783000,6.000,-18587.9,-309.80,391,400,-9,+0
1221,1761644854.787000,1761644854.783500,3.500,-18586.9,-309.78,391,399,-9,-1
1222,1761644855.790000,1761644855.785000,5.000,-18585.9,-309.76,389,400,-11,+0
1223,1761644856.789500,1761644856.784000,5.500,-18584.9,-309.75,389,401,-11,+1
1224,1761644857.791000,1761644857.787000,4.000,-18583.9,-309.73,389,399,-11,-1
1225,1761644858.791500,1761644858.785000,6.500,-18582.9,-309.71,390,400,-10,+0
1226,1761644859.792000,1761644859.785500,6.500,-18581.9,-309.70,390,400,-10,+0
1227,1761644860.792500,1761644860.786000,6.500,-18580.9,-309.68,388,400,-12,+0
1228,1761644861.793000,1761644861.786500,6.500,-18579.9,-309.66,391,400,-9,+0
1229,1761644862.792500,1761644862.786000,6.500,-18578.9,-309.65,391,399,-9,-1
1230,1761644863.793000,1761644863.786500,6.500,-18577.9,-309.63,390,401,-10,+1
1231,1761644864.791000,1761644864.788000,3.000,-18576.9,-309.61,390,400,-10,+0
1232,1761644865.794000,1761644865.788500,5.500,-18575.9,-309.60,390,400,-10,+0
1233,1761644866.794500,1761644866.787500,7.000,-18574.9,-309.58,393,399,-7,-1
1234,1761644867.796000,1761644867.789000,7.000,-18573.9,-309.56,390,401,-10,+1
1235,1761644868.794000,1761644868.792000,2.000,-18572.9,-309.55,391,400,-9,+0
1236,1761644869.797000,1761644869.790000,7.000,-18571.9,-309.53,390,400,-10,+0
1237,1761644870.796000,1761644870.791500,4.500,-18570.9,-309.51,392,400,-8,+0
1238,1761644871.797500,1761644871.790500,7.000,-18569.9,-309.50,391,399,-9,-1
1239,1761644872.795500,1761644872.791000,4.500,-18568.9,-309.48,391,399,-9,-1
1240,1761644873.793500,1761644873.790500,3.000,-18567.9,-309.46,391,400,-9,+0
1241,1761644874.797500,1761644874.791000,6.500,-18566.9,-309.45,391,400,-9,+0
1242,1761644875.794500,1761644875.791500,3.000,-18565.9,-309.43,392,400,-8,+0
1243,1761644876.795000,1761644876.792000,3.000,-18564.9,-309.41,392,400,-8,+0
1244,1761644877.796500,1761644877.792500,4.000,-18563.9,-309.40,392,400,-8,+0
1245,1761644878.797000,1761644878.792000,5.000,-18562.9,-309.38,393,400,-7,+0
1246,1761644879.799000,1761644879.793500,5.500,-18561.9,-309.36,390,401,-10,+1
1247,1761644880.799500,1761644880.795000,4.500,-18560.9,-309.35,391,400,-9,+0
1248,1761644881.800000,1761644881.795500,4.500,-18559.9,-309.33,391,399,-9,-1
1249,1761644882.799500,1761644882.794500,5.000,-18558.9,-309.31,390,399,-10,-1
1250,1761644883.800000,1761644883.795000,5.000,-18557.9,-309.30,392,400,-8,+0
1251,1761644884.799500,1761644884.795500,4.000,-18556.9,-309.28,391,401,-9,+1
1252,1761644885.800000,1761644885.798500,1.500,-18555.9,-309.26,392,400,-8,+0
1253,1761644886.800500,1761644886.800000,0.500,-18554.9,-309.25,392,399,-8,-1
1254,1761644887.803000,1761644887.798000,5.000,-18553.9,-309.23,390,400,-10,+0
1255,1761644888.804500,1761644888.798500,6.000,-18552.9,-309.21,392,399,-8,-1
1256,1761644889.804500,1761644889.796500,8.000,-18551.9,-309.20,390,400,-10,+0
1257,1761644890.802500,1761644890.797000,5.500,-18550.9,-309.18,392,400,-8,+0
1258,1761644891.803000,1761644891.797500,5.500,-18549.9,-309.16,390,401,-10,+1
1259,1761644892.803500,1761644892.801500,2.000,-18548.9,-309.15,394,399,-6,-1
1260,1761644893.804000,1761644893.802000,2.000,-18547.9,-309.13,391,399,-9,-1
1261,1761644894.803000,1761644894.800000,3.000,-18546.9,-309.11,391,398,-9,-2
1262,1761644895.808500,1761644895.799000,9.500,-18545.9,-309.10,391,400,-9,+0
1263,1761644896.804000,1761644896.798500,5.500,-18544.9,-309.08,392,400,-8,+0
1264,1761644897.806000,1761644897.799000,7.000,-18543.9,-309.06,392,401,-8,+1
1265,1761644898.810000,1761644898.803000,7.000,-18542.9,-309.05,389,400,-11,+0
1266,1761644899.802000,1761644899.801000,1.000,-18541.9,-309.03,391,400,-9,+0
1267,1761644900.805000,1761644900.801500,3.500,-18540.9,-309.01,393,400,-7,+0
1268,1761644901.804000,1761644901.802000,2.000,-18539.9,-309.00,394,400,-6,+0
1269,1761644902.806000,1761644902.802500,3.500,-18538.9,-308.98,390,400,-10,+0
1270,1761644903.806500,1761644903.802000,4.500,-18537.9,-308.96,392,400,-8,+0
1271,1761644904.806000,1761644904.802500,3.500,-18536.9,-308.95,390,401,-10,+1
1272,1761644905.805500,1761644905.803000,2.500,-18535.9,-308.93,390,400,-10,+0
1273,1761644906.808500,1761644906.803500,5.000,-18534.9,-308.91,391,400,-9,+0
1274,1761644907.807500,1761644907.804000,3.500,-18533.9,-308.90,389,400,-11,+0
1275,1761644908.808000,1761644908.803000,5.000,-18532.9,-308.88,391,400,-9,+0
1276,1761644909.807000,1761644909.803500,3.500,-18531.9,-308.86,392,400,-8,+0
1277,1761644910.809500,1761644910.804000,5.500,-18530.9,-308.85,390,398,-10,-2
1278,1761644911.807500,1761644911.803500,4.000,-18529.9,-308.83,390,400,-10,+0
1279,1761644912.806500,1761644912.804000,2.500,-18528.9,-308.81,394,400,-6,+0
1280,1761644913.809500,1761644913.805500,4.000,-18527.9,-308.80,390,399,-10,-1
1281,1761644914.810000,1761644914.806000,4.000,-18526.9,-308.78,390,399,-10,-1
1282,1761644915.810500,1761644915.805000,5.500,-18525.9,-308.76,392,400,-8,+0
1283,1761644916.811000,1761644916.805500,5.500,-18524.9,-308.75,391,400,-9,+0
1284,1761644917.811000,1761644917.805000,6.000,-18523.9,-308.73,390,400,-10,+0
1285,1761644918.813000,1761644918.805500,7.500,-18522.9,-308.71,391,400,-9,+0
1286,1761644919.813000,1761644919.807000,6.000,-18521.9,-308.70,391,401,-9,+1
1287,1761644920.813000,1761644920.807500,5.500,-18520.9,-308.68,392,400,-8,+0
1288,1761644921.816000,1761644921.808000,8.000,-18519.8,-308.66,390,400,-10,+0
1289,1761644922.814000,1761644922.807500,6.500,-18518.9,-308.65,391,400,-9,+0
1290,1761644923.815500,1761644923.808000,7.500,-18517.9,-308.63,391,400,-9,+0
1291,1761644924.813000,1761644924.807000,6.000,-18516.9,-308.61,391,400,-9,+0
1292,1761644925.817000,1761644925.807500,9.500,-18515.8,-308.60,392,400,-8,+0
1293,1761644926.816500,1761644926.808000,8.500,-18514.8,-308.58,391,401,-9,+1
1294,1761644927.818000,1761644927.810000,8.000,-18513.8,-308.56,392,399,-8,-1
1295,1761644928.817500,1761644928.809000,8.500,-18512.8,-308.55,390,400,-10,+0
1296,1761644929.814500,1761644929.810500,4.000,-18511.9,-308.53,392,400,-8,+0
1297,1761644930.816000,1761644930.810500,5.500,-18510.8,-308.51,392,401,-8,+1
1298,1761644931.815000,1761644931.812500,2.500,-18509.9,-308.50,390,400,-10,+0
1299,1761644932.815500,1761644932.813000,2.500,-18508.9,-308.48,392,400,-8,+0
1300,1761644933.816000,1761644933.812000,4.000,-18507.8,-308.46,391,399,-9,-1
1301,1761644934.815500,1761644934.812500,3.000,-18506.9,-308.45,391,400,-9,+0
1302,1761644935.817000,1761644935.813000,4.000,-18505.8,-308.43,391,400,-9,+0
1303,1761644936.817500,1761644936.811000,6.500,-18504.8,-308.41,393,400,-7,+0
1304,1761644937.818000,1761644937.815000,3.000,-18503.8,-308.40,390,400,-10,+0
1305,1761644938.818500,1761644938.815500,3.000,-18502.8,-308.38,391,398,-9,-2
1306,1761644939.815500,1761644939.814500,1.000,-18501.9,-308.36,391,400,-9,+0
1307,1761644940.818500,1761644940.815000,3.500,-18500.8,-308.35,392,399,-8,-1
1308,1761644941.820000,1761644941.815500,4.500,-18499.8,-308.33,390,399,-10,-1
1309,1761644942.819000,1761644942.815000,4.000,-18498.8,-308.31,391,400,-9,+0
1310,1761644943.823000,1761644943.814000,9.000,-18497.8,-308.30,391,401,-9,+1
1311,1761644944.823000,1761644944.818000,5.000,-18496.8,-308.28,391,400,-9,+0
1312,1761644945.820500,1761644945.816000,4.500,-18495.8,-308.26,392,400,-8,+0
1313,1761644946.822000,1761644946.815500,6.500,-18494.8,-308.25,390,399,-10,-1
1314,1761644947.822500,1761644947.817500,5.000,-18493.8,-308.23,391,399,-9,-1
1315,1761644948.823000,1761644948.816500,6.500,-18492.8,-308.21,390,400,-10,+0
1316,1761644949.821000,1761644949.817000,4.000,-18491.8,-308.20,395,400,-5,+0
1317,1761644950.818000,1761644950.816500,1.500,-18490.8,-308.18,394,400,-6,+0
1318,1761644951.822500,1761644951.816000,6.500,-18489.8,-308.16,394,401,-6,+1
1319,1761644952.823500,1761644952.819500,4.000,-18488.8,-308.15,395,400,-5,+0
1320,1761644953.823000,1761644953.819000,4.000,-18487.8,-308.13,395,400,-5,+0
1321,1761644954.822500,1761644954.819500,3.000,-18486.8,-308.11,389,400,-11,+0
1322,1761644955.824000,1761644955.819500,4.500,-18485.8,-308.10,393,400,-7,+0
1323,1761644956.823500,1761644956.818500,5.000,-18484.8,-308.08,391,401,-9,+1
1324,1761644957.826500,1761644957.821500,5.000,-18483.8,-308.06,391,400,-9,+0
1325,1761644958.825500,1761644958.820500,5.000,-18482.8,-308.05,394,400,-6,+0
1326,1761644959.826000,1761644959.821000,5.000,-18481.8,-308.03,392,400,-8,+0
1327,1761644960.827500,1761644960.821500,6.000,-18480.8,-308.01,393,400,-7,+0
1328,1761644961.828000,1761644961.822000,6.000,-18479.8,-308.00,390,401,-10,+1
1329,1761644962.830500,1761644962.824000,6.500,-18478.8,-307.98,391,399,-9,-1
1330,1761644963.833000,1761644963.824000,9.000,-18477.8,-307.96,391,399,-9,-1
1331,1761644964.828000,1761644964.822000,6.000,-18476.8,-307.95,390,400,-10,+0
1332,1761644965.826000,1761644965.823500,2.500,-18475.8,-307.93,392,401,-8,+1
1333,1761644966.826500,1761644966.826500,0.000,-18474.8,-307.91,394,399,-6,-1
1334,1761644967.826000,1761644967.829000,3.000,-18473.8,-307.90,395,399,-5,-1
1335,1761644968.829000,1761644968.825500,3.500,-18472.8,-307.88,390,400,-10,+0
1336,1761644969.829000,1761644969.827000,2.000,-18471.8,-307.86,391,399,-9,-1
1337,1761644970.831500,1761644970.825000,6.500,-18470.8,-307.85,392,399,-8,-1
1338,1761644971.833000,1761644971.825500,7.500,-18469.8,-307.83,391,400,-9,+0
1339,1761644972.831000,1761644972.825000,6.000,-18468.8,-307.81,389,399,-11,-1
1340,1761644973.831500,1761644973.825500,6.000,-18467.8,-307.80,390,400,-10,+0
1341,1761644974.829500,1761644974.826000,3.500,-18466.8,-307.78,389,399,-11,-1
1342,1761644975.830000,1761644975.829000,1.000,-18465.8,-307.76,390,398,-10,-2
1343,1761644976.832500,1761644976.827000,5.500,-18464.8,-307.75,391,400,-9,+0
1344,1761644977.833000,1761644977.827500,5.500,-18463.8,-307.73,390,399,-10,-1
1345,1761644978.831000,1761644978.828000,3.000,-18462.8,-307.71,391,400,-9,+0
1346,1761644979.832500,1761644979.828500,4.000,-18461.8,-307.70,392,401,-8,+1
1347,1761644980.833500,1761644980.830500,3.000,-18460.8,-307.68,391,400,-9,+0
1348,1761644981.832500,1761644981.830500,2.000,-18459.8,-307.66,391,399,-9,-1
1349,1761644982.834500,1761644982.830500,4.000,-18458.8,-307.65,392,400,-8,+0
1350,1761644983.835000,1761644983.830000,5.000,-18457.8,-307.63,391,400,-9,+0
1351,1761644984.834000,1761644984.829000,5.000,-18456.8,-307.61,392,401,-8,+1
1352,1761644985.835500,1761644985.832500,3.000,-18455.8,-307.60,390,400,-10,+0
1353,1761644986.835000,1761644986.832000,3.000,-18454.8,-307.58,392,400,-8,+0
1354,1761644987.839000,1761644987.832000,7.000,-18453.8,-307.56,392,400,-8,+0
1355,1761644988.840500,1761644988.835000,5.500,-18452.8,-307.55,389,399,-11,-1
1356,1761644989.837500,1761644989.832000,5.500,-18451.8,-307.53,392,400,-8,+0
1357,1761644990.839000,1761644990.832500,6.500,-18450.8,-307.51,393,399,-7,-1
1358,1761644991.840500,1761644991.830500,10.000,-18449.8,-307.50,394,401,-6,+1
1359,1761644992.839500,1761644992.835500,4.000,-18448.8,-307.48,391,400,-9,+0
1360,1761644993.840000,1761644993.835000,5.000,-18447.8,-307.46,391,400,-9,+0
1361,1761644994.840500,1761644994.834000,6.500,-18446.8,-307.45,393,400,-7,+0
1362,1761644995.840000,1761644995.833500,6.500,-18445.8,-307.43,392,400,-8,+0
1363,1761644996.838000,1761644996.834000,4.000,-18444.8,-307.41,391,400,-9,+0
1364,1761644997.837000,1761644997.837000,0.000,-18443.8,-307.40,392,398,-8,-2
1365,1761644998.836500,1761644998.835000,1.500,-18442.8,-307.38,393,401,-7,+1
1366,1761644999.839500,1761644999.835500,4.000,-18441.8,-307.36,391,400,-9,+0
1367,1761645000.840000,1761645000.839500,0.500,-18440.8,-307.35,390,398,-10,-2
1368,1761645001.843000,1761645001.836500,6.500,-18439.8,-307.33,388,399,-12,-1
1369,1761645002.842500,1761645002.839500,3.000,-18438.8,-307.31,391,400,-9,+0
1370,1761645003.840500,1761645003.840000,0.500,-18437.8,-307.30,392,399,-8,-1
1371,1761645004.842500,1761645004.838000,4.500,-18436.8,-307.28,393,400,-7,+0
1372,1761645005.843000,1761645005.839500,3.500,-18435.8,-307.26,390,400,-10,+0
1373,1761645006.843000,1761645006.839500,3.500,-18434.8,-307.25,392,401,-8,+1
1374,1761645007.844500,1761645007.842000,2.500,-18433.8,-307.23,389,400,-11,+0
1375,1761645008.846000,1761645008.840000,6.000,-18432.8,-307.21,390,400,-10,+0
1376,1761645009.845500,1761645009.842000,3.500,-18431.8,-307.20,391,400,-9,+0
1377,1761645010.847000,1761645010.841500,5.500,-18430.8,-307.18,389,399,-11,-1
1378,1761645011.846000,1761645011.843000,3.000,-18429.8,-307.16,391,400,-9,+0
1379,1761645012.849000,1761645012.843500,5.500,-18428.8,-307.15,390,400,-10,+0
1380,1761645013.849500,1761645013.844000,5.500,-18427.8,-307.13,390,400,-10,+0
1381,1761645014.847500,1761645014.843000,4.500,-18426.8,-307.11,391,399,-9,-1
1382,1761645015.849500,1761645015.843500,6.000,-18425.8,-307.10,390,400,-10,+0
1383,1761645016.850000,1761645016.843000,7.000,-18424.8,-307.08,390,400,-10,+0
1384,1761645017.850500,1761645017.844500,6.000,-18423.8,-307.06,392,400,-8,+0
1385,1761645018.851000,1761645018.844000,7.000,-18422.8,-307.05,391,401,-9,+1
1386,1761645019.849500,1761645019.847000,2.500,-18421.8,-307.03,392,400,-8,+0
1387,1761645020.850000,1761645020.845000,5.000,-18420.8,-307.01,390,399,-10,-1
1388,1761645021.851500,1761645021.845500,6.000,-18419.8,-307.00,393,399,-7,-1
1389,1761645022.853500,1761645022.845000,8.500,-18418.8,-306.98,392,401,-8,+1
1390,1761645023.853500,1761645023.849000,4.500,-18417.8,-306.96,393,400,-7,+0
1391,1761645024.855500,1761645024.848000,7.500,-18416.8,-306.95,388,400,-12,+0
1392,1761645025.858500,1761645025.849000,9.500,-18415.8,-306.93,389,400,-11,+0
1393,1761645026.856500,1761645026.847000,9.500,-18414.8,-306.91,389,399,-11,-1
1394,1761645027.855000,1761645027.847500,7.500,-18413.8,-306.90,391,400,-9,+0
1395,1761645028.855500,1761645028.847500,8.000,-18412.8,-306.88,390,401,-10,+1
1396,1761645029.858500,1761645029.849500,9.000,-18411.8,-306.86,390,400,-10,+0
1397,1761645030.853000,1761645030.850000,3.000,-18410.8,-306.85,393,400,-7,+0
1398,1761645031.855000,1761645031.850500,4.500,-18409.8,-306.83,392,400,-8,+0
1399,1761645032.854000,1761645032.851000,3.000,-18408.8,-306.81,390,401,-10,+1
1400,1761645033.853500,1761645033.851500,2.000,-18407.8,-306.80,390,399,-10,-1
1401,1761645034.856000,1761645034.851000,5.000,-18406.8,-306.78,393,400,-7,+0
1402,1761645035.855000,1761645035.852000,3.000,-18405.8,-306.76,394,400,-6,+0
1403,1761645036.859000,1761645036.853000,6.000,-18404.8,-306.75,390,400,-10,+0
1404,1761645037.858500,1761645037.852000,6.500,-18403.8,-306.73,391,399,-9,-1
1405,1761645038.860000,1761645038.856000,4.000,-18402.8,-306.71,390,400,-10,+0
1406,1761645039.858000,1761645039.855000,3.000,-18401.8,-306.70,393,400,-7,+0
1407,1761645040.862000,1761645040.855500,6.500,-18400.8,-306.68,389,400,-11,+0
1408,1761645041.861500,1761645041.853500,8.000,-18399.8,-306.66,391,400,-9,+0
1409,1761645042.862000,1761645042.854000,8.000,-18398.8,-306.65,395,401,-5,+1
1410,1761645043.859000,1761645043.857000,2.000,-18397.8,-306.63,393,400,-7,+0
1411,1761645044.863000,1761645044.858500,4.500,-18396.8,-306.61,393,400,-7,+0
1412,1761645045.861000,1761645045.856500,4.500,-18395.8,-306.60,392,400,-8,+0
1413,1761645046.864000,1761645046.858000,6.000,-18394.8,-306.58,391,399,-9,-1
1414,1761645047.866000,1761645047.857500,8.500,-18393.8,-306.56,389,400,-11,+0
1415,1761645048.866500,1761645048.855500,11.000,-18392.8,-306.55,389,400,-11,+0
1416,1761645049.867000,1761645049.858500,8.500,-18391.8,-306.53,391,399,-9,-1
1417,1761645050.866000,1761645050.860000,6.000,-18390.8,-306.51,391,399,-9,-1
1418,1761645051.865000,1761645051.860500,4.500,-18389.8,-306.50,392,401,-8,+1
1419,1761645052.866500,1761645052.861000,5.500,-18388.8,-306.48,391,400,-9,+0
1420,1761645053.867000,1761645053.862500,4.500,-18387.8,-306.46,393,400,-7,+0
1421,1761645054.867500,1761645054.860500,7.000,-18386.8,-306.45,392,400,-8,+0
1422,1761645055.869000,1761645055.862000,7.000,-18385.8,-306.43,390,400,-10,+0
1423,1761645056.871000,1761645056.860000,11.000,-18384.8,-306.41,391,400,-9,+0
1424,1761645057.871500,1761645057.860500,11.000,-18383.8,-306.40,391,401,-9,+1
1425,1761645058.869500,1761645058.863500,6.000,-18382.8,-306.38,391,399,-9,-1
1426,1761645059.869500,1761645059.864000,5.500,-18381.8,-306.36,391,398,-9,-2
1427,1761645060.869000,1761645060.863000,6.000,-18380.8,-306.35,391,398,-9,-2
1428,1761645061.868000,1761645061.862500,5.500,-18379.8,-306.33,391,399,-9,-1
1429,1761645062.870000,1761645062.864000,6.000,-18378.8,-306.31,391,401,-9,+1
1430,1761645063.871500,1761645063.867000,4.500,-18377.8,-306.30,391,400,-9,+0
1431,1761645064.871000,1761645064.867500,3.500,-18376.8,-306.28,392,400,-8,+0
1432,1761645065.870500,1761645065.867000,3.500,-18375.8,-306.26,392,400,-8,+0
1433,1761645066.871000,1761645066.867500,3.500,-18374.8,-306.25,391,399,-9,-1
1434,1761645067.870500,1761645067.865500,5.000,-18373.8,-306.23,390,400,-10,+0
1435,1761645068.872000,1761645068.866000,6.000,-18372.8,-306.21,393,400,-7,+0
1436,1761645069.874000,1761645069.866500,7.500,-18371.8,-306.20,393,400,-7,+0
1437,1761645070.871000,1761645070.864500,6.500,-18370.8,-306.18,394,399,-6,-1
1438,1761645071.871500,1761645071.867500,4.000,-18369.8,-306.16,392,398,-8,-2
1439,1761645072.873500,1761645072.868000,5.500,-18368.8,-306.15,391,400,-9,+0
1440,1761645073.871500,1761645073.868500,3.000,-18367.8,-306.13,391,400,-9,+0
1441,1761645074.877000,1761645074.866500,10.500,-18366.8,-306.11,390,399,-10,-1
1442,1761645075.872500,1761645075.868000,4.500,-18365.8,-306.10,392,400,-8,+0
1443,1761645076.876500,1761645076.867000,9.500,-18364.8,-306.08,391,401,-9,+1
1444,1761645077.877500,1761645077.870500,7.000,-18363.8,-306.06,391,400,-9,+0
1445,1761645078.876500,1761645078.869500,7.000,-18362.8,-306.05,392,399,-8,-1
1446,1761645079.875500,1761645079.869500,6.000,-18361.8,-306.03,392,400,-8,+0
1447,1761645080.877500,1761645080.871500,6.000,-18360.8,-306.01,392,398,-8,-2
1448,1761645081.878000,1761645081.870500,7.500,-18359.8,-306.00,388,399,-12,-1
1449,1761645082.878500,1761645082.870000,8.500,-18358.8,-305.98,390,401,-10,+1
1450,1761645083.878500,1761645083.873000,5.500,-18357.8,-305.96,391,400,-9,+0
1451,1761645084.882500,1761645084.873500,9.000,-18356.8,-305.95,390,398,-10,-2
1452,1761645085.876500,1761645085.871500,5.000,-18355.8,-305.93,390,400,-10,+0
1453,1761645086.879000,1761645086.873500,5.500,-18354.8,-305.91,390,400,-10,+0
1454,1761645087.876000,1761645087.871500,4.500,-18353.8,-305.90,392,401,-8,+1
1455,1761645088.881500,1761645088.874500,7.000,-18352.8,-305.88,391,400,-9,+0
1456,1761645089.877000,1761645089.874000,3.000,-18351.8,-305.86,391,398,-9,-2
1457,1761645090.879000,1761645090.874500,4.500,-18350.8,-305.85,390,400,-10,+0
1458,1761645091.880500,1761645091.874000,6.500,-18349.8,-305.83,391,400,-9,+0
1459,1761645092.880000,1761645092.875500,4.500,-18348.8,-305.81,391,399,-9,-1
1460,1761645093.883000,1761645093.877000,6.000,-18347.8,-305.80,389,399,-11,-1
1461,1761645094.882500,1761645094.876500,6.000,-18346.8,-305.78,391,400,-9,+0
1462,1761645095.880500,1761645095.877000,3.500,-18345.8,-305.76,389,400,-11,+0
1463,1761645096.882500,1761645096.877500,5.000,-18344.8,-305.75,389,400,-11,+0
1464,1761645097.883000,1761645097.877000,6.000,-18343.8,-305.73,390,401,-10,+1
1465,1761645098.883500,1761645098.878500,5.000,-18342.8,-305.71,390,400,-10,+0
1466,1761645099.885000,1761645099.880000,5.000,-18341.8,-305.70,390,399,-10,-1
1467,1761645100.885500,1761645100.878500,7.000,-18340.8,-305.68,389,400,-11,+0
1468,1761645101.887000,1761645101.880000,7.000,-18339.8,-305.66,389,400,-11,+0
1469,1761645102.886500,1761645102.878500,8.000,-18338.8,-305.65,389,400,-11,+0
1470,1761645103.884500,1761645103.880000,4.500,-18337.8,-305.63,390,401,-10,+1
1471,1761645104.886000,1761645104.881500,4.500,-18336.8,-305.61,391,399,-9,-1
1472,1761645105.885000,1761645105.880500,4.500,-18335.8,-305.60,391,399,-9,-1
1473,1761645106.889000,1761645106.882000,7.000,-18334.8,-305.58,389,400,-11,+0
1474,1761645107.889500,1761645107.880500,9.000,-18333.8,-305.56,392,400,-8,+0
1475,1761645108.886500,1761645108.880500,6.000,-18332.8,-305.55,391,400,-9,+0
1476,1761645109.884500,1761645109.882000,2.500,-18331.8,-305.53,391,401,-9,+1
1477,1761645110.887000,1761645110.885000,2.000,-18330.8,-305.51,391,400,-9,+0
1478,1761645111.888500,1761645111.883000,5.500,-18329.8,-305.50,389,400,-11,+0
1479,1761645112.887500,1761645112.884500,3.000,-18328.8,-305.48,392,399,-8,-1
1480,1761645113.888000,1761645113.885000,3.000,-18327.8,-305.46,391,400,-9,+0
1481,1761645114.888500,1761645114.884000,4.500,-18326.8,-305.45,393,400,-7,+0
1482,1761645115.888000,1761645115.885000,3.000,-18325.8,-305.43,391,400,-9,+0
1483,1761645116.889500,1761645116.887000,2.500,-18324.8,-305.41,392,400,-8,+0
1484,1761645117.888500,1761645117.886500,2.000,-18323.8,-305.40,392,400,-8,+0
1485,1761645118.891500,1761645118.885500,6.000,-18322.8,-305.38,393,400,-7,+0
1486,1761645119.889500,1761645119.884500,5.000,-18321.8,-305.36,392,400,-8,+0
1487,1761645120.890000,1761645120.885500,4.500,-18320.8,-305.35,391,400,-9,+0
1488,1761645121.890500,1761645121.885000,5.500,-18319.8,-305.33,390,400,-10,+0
1489,1761645122.892000,1761645122.885500,6.500,-18318.8,-305.31,390,400,-10,+0
1490,1761645123.890000,1761645123.887500,2.500,-18317.8,-305.30,390,400,-10,+0
1491,1761645124.893000,1761645124.888000,5.000,-18316.8,-305.28,390,400,-10,+0
1492,1761645125.893500,1761645125.887500,6.000,-18315.8,-305.26,392,400,-8,+0
1493,1761645126.894000,1761645126.888000,6.000,-18314.8,-305.25,389,400,-11,+0
1494,1761645127.892000,1761645127.887500,4.500,-18313.8,-305.23,391,401,-9,+1
1495,1761645128.893500,1761645128.890500,3.000,-18312.8,-305.21,391,400,-9,+0
1496,1761645129.895000,1761645129.891000,4.000,-18311.8,-305.20,391,400,-9,+0
1497,1761645130.894500,1761645130.890000,4.500,-18310.8,-305.18,392,400,-8,+0
1498,1761645131.898000,1761645131.890000,8.000,-18309.8,-305.16,391,399,-9,-1
1499,1761645132.893000,1761645132.889500,3.500,-18308.8,-305.15,392,399,-8,-1
1500,1761645133.895500,1761645133.890000,5.500,-18307.8,-305.13,390,400,-10,+0
1501,1761645134.893500,1761645134.890500,3.000,-18306.8,-305.11,392,400,-8,+0
1502,1761645135.896000,1761645135.893500,2.500,-18305.8,-305.10,392,400,-8,+0
1503,1761645136.895000,1761645136.894000,1.000,-18304.8,-305.08,389,400,-11,+0
1504,1761645137.895000,1761645137.892000,3.000,-18303.8,-305.06,393,400,-7,+0
1505,1761645138.899000,1761645138.893500,5.500,-18302.8,-305.05,394,400,-6,+0
1506,1761645139.897000,1761645139.893000,4.000,-18301.8,-305.03,390,400,-10,+0
1507,1761645140.896500,1761645140.893000,3.500,-18300.8,-305.01,392,400,-8,+0
1508,1761645141.898000,1761645141.894500,3.500,-18299.8,-305.00,392,400,-8,+0
1509,1761645142.897500,1761645142.894500,3.000,-18298.8,-304.98,392,400,-8,+0
1510,1761645143.900500,1761645143.895500,5.000,-18297.8,-304.96,390,398,-10,-2
1511,1761645144.899500,1761645144.894500,5.000,-18296.8,-304.95,391,400,-9,+0
1512,1761645145.900000,1761645145.894500,5.500,-18295.8,-304.93,391,400,-9,+0
1513,1761645146.900500,1761645146.894500,6.000,-18294.8,-304.91,391,398,-9,-2
1514,1761645147.902000,1761645147.897500,4.500,-18293.8,-304.90,390,400,-10,+0
1515,1761645148.898500,1761645148.898000,0.500,-18292.8,-304.88,391,400,-9,+0
1516,1761645149.899000,1761645149.897000,2.000,-18291.8,-304.86,392,400,-8,+0
1517,1761645150.903000,1761645150.896500,6.500,-18290.8,-304.85,390,400,-10,+0
1518,1761645151.903500,1761645151.897000,6.500,-18289.8,-304.83,391,401,-9,+1
1519,1761645152.904000,1761645152.900000,4.000,-18288.8,-304.81,389,400,-11,+0
1520,1761645153.904500,1761645153.898000,6.500,-18287.8,-304.80,389,400,-11,+0
1521,1761645154.905000,1761645154.897500,7.500,-18286.8,-304.78,390,399,-10,-1
1522,1761645155.905500,1761645155.898000,7.500,-18285.8,-304.76,389,400,-11,+0
1523,1761645156.907000,1761645156.900000,7.000,-18284.8,-304.75,391,400,-9,+0
1524,1761645157.904500,1761645157.899000,5.500,-18283.8,-304.73,392,401,-8,+1
1525,1761645158.908500,1761645158.900500,8.000,-18282.8,-304.71,391,399,-9,-1
1526,1761645159.908500,1761645159.900500,8.000,-18281.8,-304.70,390,400,-10,+0
1527,1761645160.910000,1761645160.902000,8.000,-18280.8,-304.68,391,401,-9,+1
1528,1761645161.910500,1761645161.905000,5.500,-18279.8,-304.66,393,400,-7,+0
1529,1761645162.912000,1761645162.904000,8.000,-18278.8,-304.65,392,400,-8,+0
1530,1761645163.909000,1761645163.904500,4.500,-18277.8,-304.63,391,401,-9,+1
1531,1761645164.908500,1761645164.906500,2.000,-18276.8,-304.61,391,399,-9,-1
1532,1761645165.909000,1761645165.907000,2.000,-18275.8,-304.60,392,399,-8,-1
1533,1761645166.909500,1761645166.906000,3.500,-18274.8,-304.58,389,399,-11,-1
1534,1761645167.909000,1761645167.906000,3.000,-18273.8,-304.56,393,400,-7,+0
1535,1761645168.908000,1761645168.906000,2.000,-18272.8,-304.55,390,398,-10,-2
1536,1761645169.912000,1761645169.906500,5.500,-18271.8,-304.53,390,400,-10,+0
1537,1761645170.913500,1761645170.908000,5.500,-18270.8,-304.51,390,397,-10,-3
1538,1761645171.911500,1761645171.909500,2.000,-18269.8,-304.50,391,400,-9,+0
1539,1761645172.912000,1761645172.907500,4.500,-18268.8,-304.48,391,399,-9,-1
1540,1761645173.912500,1761645173.907500,5.000,-18267.8,-304.46,391,399,-9,-1
1541,1761645174.913000,1761645174.908500,4.500,-18266.8,-304.45,392,400,-8,+0
1542,1761645175.912500,1761645175.907000,5.500,-18265.8,-304.43,393,400,-7,+0
1543,1761645176.915500,1761645176.907000,8.500,-18264.8,-304.41,392,400,-8,+0
1544,1761645177.913000,1761645177.907500,5.500,-18263.8,-304.40,393,401,-7,+1
1545,1761645178.914500,1761645178.911500,3.000,-18262.8,-304.38,396,400,-4,+0
1546,1761645179.913000,1761645179.911000,2.000,-18261.8,-304.36,394,399,-6,-1
1547,1761645180.917500,1761645180.909500,8.000,-18260.7,-304.35,394,400,-6,+0
1548,1761645181.914500,1761645181.911500,3.000,-18259.8,-304.33,394,400,-6,+0
1549,1761645182.916000,1761645182.910500,5.500,-18258.7,-304.31,393,400,-7,+0
1550,1761645183.918500,1761645183.911000,7.500,-18257.7,-304.30,390,401,-10,+1
1551,1761645184.915500,1761645184.914000,1.500,-18256.8,-304.28,393,399,-7,-1
1552,1761645185.918500,1761645185.911000,7.500,-18255.7,-304.26,391,400,-9,+0
1553,1761645186.919000,1761645186.914000,5.000,-18254.7,-304.25,391,400,-9,+0
1554,1761645187.923000,1761645187.913500,9.500,-18253.7,-304.23,390,400,-10,+0
1555,1761645188.921000,1761645188.913000,8.000,-18252.7,-304.21,392,401,-8,+1
1556,1761645189.920000,1761645189.916000,4.000,-18251.7,-304.20,390,399,-10,-1
1557,1761645190.921500,1761645190.914500,7.000,-18250.7,-304.18,391,399,-9,-1
1558,1761645191.922000,1761645191.916500,5.500,-18249.7,-304.16,391,399,-9,-1
1559,1761645192.924500,1761645192.914500,10.000,-18248.7,-304.15,390,399,-10,-1
1560,1761645193.922000,1761645193.915000,7.000,-18247.7,-304.13,390,400,-10,+0
1561,1761645194.925500,1761645194.915500,10.000,-18246.7,-304.11,391,399,-9,-1
1562,1761645195.922000,1761645195.916000,6.000,-18245.7,-304.10,389,399,-11,-1
1563,1761645196.921000,1761645196.917500,3.500,-18244.7,-304.08,391,400,-9,+0
1564,1761645197.920000,1761645197.917000,3.000,-18243.7,-304.06,393,400,-7,+0
1565,1761645198.919500,1761645198.916000,3.500,-18242.7,-304.05,393,400,-7,+0
1566,1761645199.920500,1761645199.916500,4.000,-18241.7,-304.03,392,400,-8,+0
1567,1761645200.919000,1761645200.918000,1.000,-18240.7,-304.01,392,400,-8,+0
1568,1761645201.922000,1761645201.916000,6.000,-18239.7,-304.00,389,400,-11,+0
1569,1761645202.920000,1761645202.919000,1.000,-18238.7,-303.98,391,400,-9,+0
1570,1761645203.923000,1761645203.919500,3.500,-18237.7,-303.96,390,399,-10,-1
1571,1761645204.923500,1761645204.920000,3.500,-18236.7,-303.95,391,400,-9,+0
1572,1761645205.927500,1761645205.919000,8.500,-18235.7,-303.93,392,400,-8,+0
1573,1761645206.928000,1761645206.919500,8.500,-18234.7,-303.91,391,400,-9,+0
1574,1761645207.924500,1761645207.922500,2.000,-18233.7,-303.90,394,400,-6,+0
1575,1761645208.927000,1761645208.920500,6.500,-18232.7,-303.88,390,400,-10,+0
1576,1761645209.926000,1761645209.921500,4.500,-18231.7,-303.86,391,400,-9,+0
1577,1761645210.925000,1761645210.920500,4.500,-18230.7,-303.85,393,399,-7,-1
1578,1761645211.927000,1761645211.921000,6.000,-18229.7,-303.83,392,399,-8,-1
1579,1761645212.927500,1761645212.924000,3.500,-18228.7,-303.81,392,399,-8,-1
1580,1761645213.929000,1761645213.922000,7.000,-18227.7,-303.80,391,401,-9,+1
1581,1761645214.932000,1761645214.923500,8.500,-18226.7,-303.78,391,399,-9,-1
1582,1761645215.929500,1761645215.924000,5.500,-18225.7,-303.76,392,400,-8,+0
1583,1761645216.934500,1761645216.922000,12.500,-18224.7,-303.75,390,400,-10,+0
1584,1761645217.929000,1761645217.922500,6.500,-18223.7,-303.73,394,400,-6,+0
1585,1761645218.929500,1761645218.923000,6.500,-18222.7,-303.71,393,400,-7,+0
1586,1761645219.930000,1761645219.924500,5.500,-18221.7,-303.70,392,400,-8,+0
1587,1761645220.929500,1761645220.923500,6.000,-18220.7,-303.68,391,399,-9,-1
1588,1761645221.930000,1761645221.924000,6.000,-18219.7,-303.66,391,399,-9,-1
1589,1761645222.929000,1761645222.923000,6.000,-18218.7,-303.65,392,400,-8,+0
1590,1761645223.933000,1761645223.922000,11.000,-18217.7,-303.63,389,400,-11,+0
1591,1761645224.933500,1761645224.925000,8.500,-18216.7,-303.61,390,400,-10,+0
1592,1761645225.935000,1761645225.928000,7.000,-18215.7,-303.60,391,399,-9,-1
1593,1761645226.933000,1761645226.928500,4.500,-18214.7,-303.58,391,400,-9,+0
1594,1761645227.930000,1761645227.928000,2.000,-18213.7,-303.56,391,400,-9,+0
1595,1761645228.933000,1761645228.928500,4.500,-18212.7,-303.55,389,399,-11,-1
1596,1761645229.931000,1761645229.927500,3.500,-18211.7,-303.53,391,401,-9,+1
1597,1761645230.937500,1761645230.931500,6.000,-18210.7,-303.51,391,400,-9,+0
1598,1761645231.934500,1761645231.929000,5.500,-18209.7,-303.50,390,400,-10,+0
1599,1761645232.936000,1761645232.929500,6.500,-18208.7,-303.48,392,399,-8,-1
1600,1761645233.940000,1761645233.929000,11.000,-18207.7,-303.46,390,400,-10,+0
1601,1761645234.939500,1761645234.931500,8.000,-18206.7,-303.45,391,399,-9,-1
1602,1761645235.937500,1761645235.929500,8.000,-18205.7,-303.43,391,401,-9,+1
1603,1761645236.937500,1761645236.934000,3.500,-18204.7,-303.41,391,398,-9,-2
1604,1761645237.940500,1761645237.933500,7.000,-18203.7,-303.40,391,400,-9,+0
1605,1761645238.938500,1761645238.932500,6.000,-18202.7,-303.38,390,397,-10,-3
1606,1761645239.939000,1761645239.933000,6.000,-18201.7,-303.36,392,398,-8,-2
1607,1761645240.940500,1761645240.931000,9.500,-18200.7,-303.35,389,400,-11,+0
1608,1761645241.939500,1761645241.935500,4.000,-18199.7,-303.33,392,400,-8,+0
1609,1761645242.941000,1761645242.935500,5.500,-18198.7,-303.31,393,399,-7,-1
1610,1761645243.941000,1761645243.934000,7.000,-18197.7,-303.30,391,400,-9,+0
1611,1761645244.942500,1761645244.935500,7.000,-18196.7,-303.28,391,399,-9,-1
1612,1761645245.942000,1761645245.936000,6.000,-18195.7,-303.26,391,399,-9,-1
1613,1761645246.946000,1761645246.937500,8.500,-18194.7,-303.25,390,400,-10,+0
1614,1761645247.944000,1761645247.937500,6.500,-18193.7,-303.23,389,400,-11,+0
1615,1761645248.944500,1761645248.936500,8.000,-18192.7,-303.21,389,400,-11,+0
1616,1761645249.946000,1761645249.937500,8.500,-18191.7,-303.20,392,399,-8,-1
1617,1761645250.946000,1761645250.937500,8.500,-18190.7,-303.18,388,400,-12,+0
1618,1761645251.945000,1761645251.937000,8.000,-18189.7,-303.16,391,399,-9,-1
1619,1761645252.946500,1761645252.938500,8.000,-18188.7,-303.15,392,400,-8,+0
1620,1761645253.945500,1761645253.939000,6.500,-18187.7,-303.13,391,400,-9,+0
1621,1761645254.949500,1761645254.939000,10.500,-18186.7,-303.11,391,400,-9,+0
1622,1761645255.945000,1761645255.938500,6.500,-18185.7,-303.10,391,400,-9,+0
1623,1761645256.945500,1761645256.939500,6.000,-18184.7,-303.08,390,400,-10,+0
1624,1761645257.946000,1761645257.938500,7.500,-18183.7,-303.06,390,401,-10,+1
1625,1761645258.946500,1761645258.941500,5.000,-18182.7,-303.05,392,400,-8,+0
1626,1761645259.946000,1761645259.942000,4.000,-18181.7,-303.03,392,400,-8,+0
1627,1761645260.945000,1761645260.942500,2.500,-18180.7,-303.01,393,400,-7,+0
1628,1761645261.947000,1761645261.940500,6.500,-18179.7,-303.00,390,400,-10,+0
1629,1761645262.948500,1761645262.940000,8.500,-18178.7,-302.98,391,399,-9,-1
1630,1761645263.945500,1761645263.942500,3.000,-18177.7,-302.96,391,400,-9,+0
1631,1761645264.949500,1761645264.942500,7.000,-18176.7,-302.95,393,400,-7,+0
1632,1761645265.947500,1761645265.942500,5.000,-18175.7,-302.93,390,400,-10,+0
1633,1761645266.948000,1761645266.942500,5.500,-18174.7,-302.91,391,400,-9,+0
1634,1761645267.949500,1761645267.944500,5.000,-18173.7,-302.90,392,400,-8,+0
1635,1761645268.949000,1761645268.943500,5.500,-18172.7,-302.88,392,399,-8,-1
1636,1761645269.951500,1761645269.943500,8.000,-18171.7,-302.86,391,400,-9,+0
1637,1761645270.949500,1761645270.942500,7.000,-18170.7,-302.85,393,401,-7,+1
1638,1761645271.951000,1761645271.945500,5.500,-18169.7,-302.83,391,400,-9,+0
1639,1761645272.951500,1761645272.946000,5.500,-18168.7,-302.81,390,399,-10,-1
1640,1761645273.953000,1761645273.945500,7.500,-18167.7,-302.80,388,400,-12,+0
1641,1761645274.953500,1761645274.945500,8.000,-18166.7,-302.78,391,400,-9,+0
1642,1761645275.952500,1761645275.944500,8.000,-18165.7,-302.76,394,400,-6,+0
1643,1761645276.950500,1761645276.947500,3.000,-18164.7,-302.75,391,400,-9,+0
1644,1761645277.954500,1761645277.949000,5.500,-18163.7,-302.73,390,400,-10,+0
1645,1761645278.956000,1761645278.947000,9.000,-18162.7,-302.71,390,400,-10,+0
1646,1761645279.953500,1761645279.948500,5.000,-18161.7,-302.70,392,400,-8,+0
1647,1761645280.951500,1761645280.948000,3.500,-18160.7,-302.68,391,400,-9,+0
1648,1761645281.954500,1761645281.951500,3.000,-18159.7,-302.66,391,400,-9,+0
1649,1761645282.955000,1761645282.951000,4.000,-18158.7,-302.65,390,400,-10,+0
1650,1761645283.954500,1761645283.949000,5.500,-18157.7,-302.63,392,400,-8,+0
1651,1761645284.957500,1761645284.949500,8.000,-18156.7,-302.61,393,400,-7,+0
1652,1761645285.959000,1761645285.949000,10.000,-18155.7,-302.60,389,400,-11,+0
1653,1761645286.956000,1761645286.948500,7.500,-18154.7,-302.58,391,401,-9,+1
1654,1761645287.957500,1761645287.952500,5.000,-18153.7,-302.56,391,400,-9,+0
1655,1761645288.958000,1761645288.952000,6.000,-18152.7,-302.55,389,400,-11,+0
1656,1761645289.957000,1761645289.951500,5.500,-18151.7,-302.53,392,399,-8,-1
1657,1761645290.958500,1761645290.953000,5.500,-18150.7,-302.51,389,400,-11,+0
1658,1761645291.956500,1761645291.953500,3.000,-18149.7,-302.50,390,400,-10,+0
1659,1761645292.959000,1761645292.951500,7.500,-18148.7,-302.48,391,400,-9,+0
1660,1761645293.958000,1761645293.951000,7.000,-18147.7,-302.46,391,400,-9,+0
1661,1761645294.958500,1761645294.953000,5.500,-18146.7,-302.45,392,400,-8,+0
1662,1761645295.958000,1761645295.955500,2.500,-18145.7,-302.43,392,400,-8,+0
1663,1761645296.958500,1761645296.953000,5.500,-18144.7,-302.41,391,400,-9,+0
1664,1761645297.962500,1761645297.955500,7.000,-18143.7,-302.40,392,400,-8,+0
1665,1761645298.959500,1761645298.953500,6.000,-18142.7,-302.38,391,400,-9,+0
1666,1761645299.963500,1761645299.953000,10.500,-18141.7,-302.36,391,397,-9,-3
1667,1761645300.965000,1761645300.953500,11.500,-18140.7,-302.35,390,401,-10,+1
1668,1761645301.962000,1761645301.956000,6.000,-18139.7,-302.33,391,400,-9,+0
1669,1761645302.961500,1761645302.956500,5.000,-18138.7,-302.31,389,400,-11,+0
1670,1761645303.960500,1761645303.959500,1.000,-18137.7,-302.30,393,398,-7,-2
1671,1761645304.961000,1761645304.957500,3.500,-18136.7,-302.28,391,400,-9,+0
1672,1761645305.961500,1761645305.957000,4.500,-18135.7,-302.26,391,399,-9,-1
1673,1761645306.962000,1761645306.956500,5.500,-18134.7,-302.25,391,400,-9,+0
1674,1761645307.963500,1761645307.957000,6.500,-18133.7,-302.23,391,401,-9,+1
1675,1761645308.961500,1761645308.959000,2.500,-18132.7,-302.21,392,400,-8,+0
1676,1761645309.965500,1761645309.959500,6.000,-18131.7,-302.20,390,400,-10,+0
1677,1761645310.963500,1761645310.959000,4.500,-18130.7,-302.18,389,400,-11,+0
1678,1761645311.963500,1761645311.959000,4.500,-18129.7,-302.16,391,400,-9,+0
1679,1761645312.965000,1761645312.958000,7.000,-18128.7,-302.15,391,399,-9,-1
1680,1761645313.962000,1761645313.958500,3.500,-18127.7,-302.13,389,398,-11,-2
1681,1761645314.963500,1761645314.957500,6.000,-18126.7,-302.11,392,399,-8,-1
1682,1761645315.964000,1761645315.958000,6.000,-18125.7,-302.10,391,400,-9,+0
1683,1761645316.964500,1761645316.957500,7.000,-18124.7,-302.08,391,401,-9,+1
1684,1761645317.962500,1761645317.960500,2.000,-18123.7,-302.06,393,399,-7,-1
1685,1761645318.966500,1761645318.961000,5.500,-18122.7,-302.04,392,400,-8,+0
1686,1761645319.969500,1761645319.961500,8.000,-18121.7,-302.03,389,400,-11,+0
1687,1761645320.967500,1761645320.962000,5.500,-18120.7,-302.01,390,400,-10,+0
1688,1761645321.970500,1761645321.960000,10.500,-18119.7,-301.99,389,400,-11,+0
1689,1761645322.967000,1761645322.961000,6.000,-18118.7,-301.98,391,400,-9,+0
1690,1761645323.968500,1761645323.962500,6.000,-18117.7,-301.96,389,400,-11,+0
1691,1761645324.969000,1761645324.963000,6.000,-18116.7,-301.94,390,399,-10,-1
1692,1761645325.967000,1761645325.964000,3.000,-18115.7,-301.93,392,398,-8,-2
1693,1761645326.969000,1761645326.963500,5.500,-18114.7,-301.91,389,399,-11,-1
1694,1761645327.969000,1761645327.962500,6.500,-18113.7,-301.89,392,400,-8,+0
1695,1761645328.965500,1761645328.962500,3.000,-18112.7,-301.88,392,401,-8,+1
1696,1761645329.968500,1761645329.965500,3.000,-18111.7,-301.86,389,400,-11,+0
1697,1761645330.967500,1761645330.966500,1.000,-18110.7,-301.84,391,398,-9,-2
1698,1761645331.968000,1761645331.964500,3.500,-18109.7,-301.83,389,400,-11,+0
1699,1761645332.967500,1761645332.965000,2.500,-18108.7,-301.81,390,397,-10,-3
1700,1761645333.970500,1761645333.964500,6.000,-18107.7,-301.79,389,399,-11,-1
1701,1761645334.971000,1761645334.965000,6.000,-18106.7,-301.78,390,400,-10,+0
1702,1761645335.970500,1761645335.964500,6.000,-18105.7,-301.76,392,401,-8,+1
1703,1761645336.972000,1761645336.967500,4.500,-18104.7,-301.74,390,400,-10,+0
1704,1761645337.971500,1761645337.968000,3.500,-18103.7,-301.73,391,400,-9,+0
1705,1761645338.971500,1761645338.966000,5.500,-18102.7,-301.71,391,399,-9,-1
1706,1761645339.972000,1761645339.968500,3.500,-18101.7,-301.69,390,400,-10,+0
1707,1761645340.972500,1761645340.968000,4.500,-18100.7,-301.68,391,399,-9,-1
1708,1761645341.974000,1761645341.967500,6.500,-18099.7,-301.66,389,400,-11,+0
1709,1761645342.973500,1761645342.970500,3.000,-18098.7,-301.64,390,400,-10,+0
1710,1761645343.975000,1761645343.970500,4.500,-18097.7,-301.63,390,400,-10,+0
1711,1761645344.973000,1761645344.968500,4.500,-18096.7,-301.61,391,400,-9,+0
1712,1761645345.976000,1761645345.969000,7.000,-18095.7,-301.59,390,400,-10,+0
1713,1761645346.975500,1761645346.969500,6.000,-18094.7,-301.58,392,400,-8,+0
1714,1761645347.976000,1761645347.970000,6.000,-18093.7,-301.56,391,401,-9,+1
1715,1761645348.977000,1761645348.971000,6.000,-18092.7,-301.54,391,400,-9,+0
1716,1761645349.975000,1761645349.971500,3.500,-18091.7,-301.53,392,399,-8,-1
1717,1761645350.980500,1761645350.973000,7.500,-18090.7,-301.51,391,400,-9,+0
1718,1761645351.978500,1761645351.971000,7.500,-18089.7,-301.49,391,400,-9,+0
1719,1761645352.979000,1761645352.971500,7.500,-18088.7,-301.48,393,398,-7,-2
1720,1761645353.982000,1761645353.973000,9.000,-18087.7,-301.46,391,401,-9,+1
1721,1761645354.977500,1761645354.973500,4.000,-18086.7,-301.44,391,399,-9,-1
1722,1761645355.980500,1761645355.972500,8.000,-18085.7,-301.43,392,400,-8,+0
1723,1761645356.976000,1761645356.973000,3.000,-18084.7,-301.41,392,400,-8,+0
1724,1761645357.977500,1761645357.973500,4.000,-18083.7,-301.39,391,400,-9,+0
1725,1761645358.976500,1761645358.973000,3.500,-18082.7,-301.38,391,400,-9,+0
1726,1761645359.979000,1761645359.973500,5.500,-18081.7,-301.36,391,400,-9,+0
1727,1761645360.979000,1761645360.974000,5.000,-18080.7,-301.34,392,401,-8,+1
1728,1761645361.979500,1761645361.976500,3.000,-18079.7,-301.33,391,400,-9,+0
1729,1761645362.978500,1761645362.975500,3.000,-18078.7,-301.31,391,400,-9,+0
1730,1761645363.979500,1761645363.975500,4.000,-18077.7,-301.29,390,399,-10,-1
1731,1761645364.980500,1761645364.975000,5.500,-18076.7,-301.28,390,400,-10,+0
1732,1761645365.979500,1761645365.977500,2.000,-18075.7,-301.26,391,400,-9,+0
1733,1761645366.980000,1761645366.976500,3.500,-18074.7,-301.24,392,400,-8,+0
1734,1761645367.983000,1761645367.977000,6.000,-18073.7,-301.23,390,400,-10,+0
1735,1761645368.982000,1761645368.977500,4.500,-18072.7,-301.21,391,400,-9,+0
1736,1761645369.980000,1761645369.975500,4.500,-18071.7,-301.19,391,401,-9,+1
1737,1761645370.982000,1761645370.978500,3.500,-18070.7,-301.18,391,400,-9,+0
1738,1761645371.983500,1761645371.979000,4.500,-18069.7,-301.16,391,400,-9,+0
1739,1761645372.981500,1761645372.978000,3.500,-18068.7,-301.14,391,400,-9,+0
1740,1761645373.981500,1761645373.978500,3.000,-18067.7,-301.13,392,400,-8,+0
1741,1761645374.981500,1761645374.977500,4.000,-18066.7,-301.11,392,400,-8,+0
1742,1761645375.985500,1761645375.978000,7.500,-18065.7,-301.09,392,400,-8,+0
1743,1761645376.984500,1761645376.982000,2.500,-18064.7,-301.08,392,399,-8,-1
1744,1761645377.985500,1761645377.985000,0.500,-18063.7,-301.06,392,397,-8,-3
1745,1761645378.988000,1761645378.979000,9.000,-18062.7,-301.04,390,400,-10,+0
1746,1761645379.986000,1761645379.979500,6.500,-18061.7,-301.03,392,399,-8,-1
1747,1761645380.989000,1761645380.980000,9.000,-18060.7,-301.01,391,399,-9,-1
1748,1761645381.988500,1761645381.981500,7.000,-18059.7,-300.99,394,401,-6,+1
1749,1761645382.991000,1761645382.983000,8.000,-18058.7,-300.98,391,400,-9,+0
1750,1761645383.988000,1761645383.984000,4.000,-18057.7,-300.96,393,399,-7,-1
1751,1761645384.994500,1761645384.984000,10.500,-18056.7,-300.94,390,400,-10,+0
1752,1761645385.988000,1761645385.986000,2.000,-18055.7,-300.93,392,400,-8,+0
1753,1761645386.990000,1761645386.984000,6.000,-18054.7,-300.91,390,400,-10,+0
1754,1761645387.989000,1761645387.984500,4.500,-18053.7,-300.89,392,400,-8,+0
1755,1761645388.987000,1761645388.986000,1.000,-18052.7,-300.88,394,400,-6,+0
1756,1761645389.991000,1761645389.984500,6.500,-18051.7,-300.86,390,400,-10,+0
1757,1761645390.990000,1761645390.985000,5.000,-18050.7,-300.84,391,400,-9,+0
1758,1761645391.990500,1761645391.985500,5.000,-18049.7,-300.83,389,401,-11,+1
1759,1761645392.991000,1761645392.986000,5.000,-18048.7,-300.81,390,400,-10,+0
1760,1761645393.989000,1761645393.988500,0.500,-18047.7,-300.79,391,399,-9,-1
1761,1761645394.988500,1761645394.987000,1.500,-18046.7,-300.78,391,400,-9,+0
1762,1761645395.991500,1761645395.987500,4.000,-18045.7,-300.76,388,400,-12,+0
1763,1761645396.990500,1761645396.987000,3.500,-18044.7,-300.74,390,400,-10,+0
1764,1761645397.992000,1761645397.988500,3.500,-18043.7,-300.73,391,399,-9,-1
1765,1761645398.992000,1761645398.988000,4.000,-18042.7,-300.71,391,400,-9,+0
1766,1761645399.993500,1761645399.986000,7.500,-18041.7,-300.69,391,400,-9,+0
1767,1761645400.992500,1761645400.989000,3.500,-18040.7,-300.68,391,400,-9,+0
1768,1761645401.993000,1761645401.988500,4.500,-18039.7,-300.66,389,398,-11,-2
1769,1761645402.993500,1761645402.989000,4.500,-18038.7,-300.64,388,399,-12,-1
1770,1761645403.996500,1761645403.988500,8.000,-18037.7,-300.63,393,400,-7,+0
1771,1761645404.997000,1761645404.990000,7.000,-18036.7,-300.61,390,400,-10,+0
1772,1761645405.999000,1761645405.989500,9.500,-18035.7,-300.59,390,401,-10,+1
1773,1761645406.999500,1761645406.991500,8.000,-18034.7,-300.58,389,400,-11,+0
1774,1761645407.996500,1761645407.993000,3.500,-18033.7,-300.56,393,400,-7,+0
1775,1761645408.999500,1761645408.990000,9.500,-18032.7,-300.54,391,400,-9,+0
1776,1761645410.000000,1761645409.990500,9.500,-18031.7,-300.53,389,399,-11,-1
1777,1761645411.002000,1761645410.991000,11.000,-18030.7,-300.51,390,401,-10,+1
1778,1761645412.001500,1761645411.994000,7.500,-18029.7,-300.49,390,399,-10,-1
1779,1761645412.999000,1761645412.993000,6.000,-18028.7,-300.48,392,399,-8,-1
1780,1761645414.003000,1761645413.993500,9.500,-18027.7,-300.46,389,400,-11,+0
1781,1761645415.003500,1761645414.995000,8.500,-18026.7,-300.44,390,399,-10,-1
1782,1761645416.001500,1761645415.994000,7.500,-18025.7,-300.43,781,400,+381,+0
1784,1761645417.999000,1761645417.993500,5.500,-18023.7,-300.39,390,401,-10,+1
1785,1761645418.999500,1761645418.997500,2.000,-18022.7,-300.38,388,399,-12,-1
1786,1761645419.998500,1761645419.997000,1.500,-18021.7,-300.36,388,400,-12,+0
1787,1761645420.999000,1761645420.995000,4.000,-18020.7,-300.34,390,400,-10,+0
1788,1761645421.998000,1761645421.994500,3.500,-18019.7,-300.33,392,399,-8,-1
1789,1761645422.999500,1761645422.995000,4.500,-18018.7,-300.31,392,399,-8,-1
1790,1761645423.999000,1761645423.995500,3.500,-18017.7,-300.29,390,400,-10,+0
1791,1761645424.999500,1761645424.996000,3.500,-18016.7,-300.28,390,401,-10,+1
1792,1761645426.002500,1761645425.997500,5.000,-18015.7,-300.26,388,400,-12,+0
1793,1761645427.005500,1761645427.000500,5.000,-18014.7,-300.24,391,399,-9,-1
1794,1761645428.005000,1761645427.998500,6.500,-18013.7,-300.23,389,400,-11,+0
1795,1761645429.005500,1761645428.997500,8.000,-18012.7,-300.21,390,400,-10,+0
1796,1761645430.003500,1761645429.998000,5.500,-18011.7,-300.19,390,400,-10,+0
1797,1761645431.002500,1761645430.998000,4.500,-18010.7,-300.18,392,400,-8,+0
1798,1761645432.005000,1761645431.998000,7.000,-18009.7,-300.16,391,401,-9,+1
1799,1761645433.005500,1761645433.001000,4.500,-18008.7,-300.14,390,400,-10,+0
1800,1761645434.007000,1761645434.000000,7.000,-18007.7,-300.13,390,400,-10,+0
1801,1761645435.007500,1761645435.000000,7.500,-18006.7,-300.11,391,400,-9,+0
1802,1761645436.008000,1761645436.000500,7.500,-18005.7,-300.09,390,400,-10,+0
1803,1761645437.007000,1761645437.000500,6.500,-18004.7,-300.08,392,400,-8,+0
1804,1761645438.008000,1761645438.001000,7.000,-18003.7,-300.06,393,401,-7,+1
1805,1761645439.008500,1761645439.004500,4.000,-18002.7,-300.04,391,399,-9,-1
1806,1761645440.009000,1761645440.004500,4.500,-18001.7,-300.03,391,399,-9,-1
1807,1761645441.007000,1761645441.001000,6.000,-18000.7,-300.01,392,400,-8,+0
1808,1761645442.011000,1761645442.002500,8.500,-17999.7,-299.99,390,400,-10,+0
1809,1761645443.008500,1761645443.001500,7.000,-17998.7,-299.98,390,400,-10,+0
1810,1761645444.010000,1761645444.001000,9.000,-17997.7,-299.96,389,401,-11,+1
1811,1761645445.010500,1761645445.006500,4.000,-17996.7,-299.94,389,399,-11,-1
1812,1761645446.012000,1761645446.003500,8.500,-17995.7,-299.93,391,400,-9,+0
1813,1761645447.012500,1761645447.004000,8.500,-17994.7,-299.91,391,400,-9,+0
1814,1761645448.011500,1761645448.007000,4.500,-17993.7,-299.89,392,400,-8,+0
1815,1761645449.008500,1761645449.007500,1.000,-17992.7,-299.88,390,400,-10,+0
1816,1761645450.012500,1761645450.008000,4.500,-17991.7,-299.86,391,399,-9,-1
1817,1761645451.013000,1761645451.006000,7.000,-17990.7,-299.84,392,400,-8,+0
1818,1761645452.012000,1761645452.007500,4.500,-17989.7,-299.83,389,400,-11,+0
1819,1761645453.015000,1761645453.005500,9.500,-17988.7,-299.81,389,400,-11,+0
1820,1761645454.014000,1761645454.008000,6.000,-17987.7,-299.79,393,400,-7,+0
1821,1761645455.012000,1761645455.006000,6.000,-17986.7,-299.78,393,400,-7,+0
1822,1761645456.012500,1761645456.006500,6.000,-17985.7,-299.76,393,401,-7,+1
1823,1761645457.015500,1761645457.009500,6.000,-17984.7,-299.74,391,400,-9,+0
1824,1761645458.016000,1761645458.010000,6.000,-17983.6,-299.73,389,400,-11,+0
1825,1761645459.014000,1761645459.008000,6.000,-17982.7,-299.71,391,400,-9,+0
1826,1761645460.016000,1761645460.008500,7.500,-17981.6,-299.69,390,401,-10,+1
1827,1761645461.016500,1761645461.010500,6.000,-17980.6,-299.68,390,400,-10,+0
1828,1761645462.019500,1761645462.011000,8.500,-17979.6,-299.66,389,397,-11,-3
1829,1761645463.019000,1761645463.011500,7.500,-17978.6,-299.64,389,400,-11,+0
1830,1761645464.017000,1761645464.011500,5.500,-17977.6,-299.63,390,400,-10,+0
1831,1761645465.017500,1761645465.012000,5.500,-17976.6,-299.61,390,400,-10,+0
1832,1761645466.020500,1761645466.013500,7.000,-17975.6,-299.59,389,400,-11,+0
1833,1761645467.017500,1761645467.013000,4.500,-17974.6,-299.58,394,400,-6,+0
1834,1761645468.020500,1761645468.013000,7.500,-17973.6,-299.56,391,400,-9,+0
1835,1761645469.021500,1761645469.014500,7.000,-17972.6,-299.54,396,400,-4,+0
1836,1761645470.019500,1761645470.012500,7.000,-17971.6,-299.53,393,401,-7,+1
1837,1761645471.019000,1761645471.015500,3.500,-17970.6,-299.51,396,400,-4,+0
1838,1761645472.021000,1761645472.015000,6.000,-17969.6,-299.49,394,400,-6,+0
1839,1761645473.020500,1761645473.017000,3.500,-17968.6,-299.48,394,400,-6,+0
1840,1761645474.022500,1761645474.015500,7.000,-17967.6,-299.46,392,401,-8,+1
1841,1761645475.023000,1761645475.019500,3.500,-17966.6,-299.44,392,400,-8,+0
1842,1761645476.022000,1761645476.016500,5.500,-17965.6,-299.43,391,400,-9,+0
1843,1761645477.021500,1761645477.017000,4.500,-17964.6,-299.41,391,400,-9,+0
1844,1761645478.024500,1761645478.016500,8.000,-17963.6,-299.39,392,400,-8,+0
1845,1761645479.021500,1761645479.017000,4.500,-17962.6,-299.38,391,399,-9,-1
1846,1761645480.023500,1761645480.016500,7.000,-17961.6,-299.36,391,400,-9,+0
1847,1761645481.026500,1761645481.020500,6.000,-17960.6,-299.34,391,398,-9,-2
1848,1761645482.026000,1761645482.018500,7.500,-17959.6,-299.33,392,401,-8,+1
1849,1761645483.024000,1761645483.019000,5.000,-17958.6,-299.31,392,400,-8,+0
1850,1761645484.028500,1761645484.019500,9.000,-17957.6,-299.29,391,400,-9,+0
1851,1761645485.026500,1761645485.022500,4.000,-17956.6,-299.28,391,398,-9,-2
1852,1761645486.029500,1761645486.020500,9.000,-17955.6,-299.26,391,400,-9,+0
1853,1761645487.024000,1761645487.018500,5.500,-17954.6,-299.24,391,401,-9,+1
1854,1761645488.024500,1761645488.021500,3.000,-17953.6,-299.23,391,400,-9,+0
1855,1761645489.025000,1761645489.021000,4.000,-17952.6,-299.21,390,397,-10,-3
1856,1761645490.025500,1761645490.021500,4.000,-17951.6,-299.19,389,400,-11,+0
1857,1761645491.024500,1761645491.022000,2.500,-17950.6,-299.18,390,400,-10,+0
1858,1761645492.027500,1761645492.022500,5.000,-17949.6,-299.16,389,401,-11,+1
1859,1761645493.028000,1761645493.024000,4.000,-17948.6,-299.14,392,400,-8,+0
1860,1761645494.027000,1761645494.023000,4.000,-17947.6,-299.13,392,399,-8,-1
1861,1761645495.030000,1761645495.025000,5.000,-17946.6,-299.11,391,400,-9,+0
1862,1761645496.031500,1761645496.025000,6.500,-17945.6,-299.09,393,399,-7,-1
1863,1761645497.031000,1761645497.024500,6.500,-17944.6,-299.08,391,401,-9,+1
1864,1761645498.029000,1761645498.027500,1.500,-17943.6,-299.06,392,400,-8,+0
1865,1761645499.032500,1761645499.025500,7.000,-17942.6,-299.04,390,397,-10,-3
1866,1761645500.032500,1761645500.026000,6.500,-17941.6,-299.03,390,400,-10,+0
1867,1761645501.035000,1761645501.026500,8.500,-17940.6,-299.01,391,399,-9,-1
1868,1761645502.034000,1761645502.024500,9.500,-17939.6,-298.99,390,399,-10,-1
1869,1761645503.033000,1761645503.027500,5.500,-17938.6,-298.98,392,399,-8,-1
1870,1761645504.034000,1761645504.028000,6.000,-17937.6,-298.96,393,400,-7,+0
1871,1761645505.036500,1761645505.029000,7.500,-17936.6,-298.94,391,400,-9,+0
1872,1761645506.034500,1761645506.028000,6.500,-17935.6,-298.93,391,400,-9,+0
1873,1761645507.035000,1761645507.028500,6.500,-17934.6,-298.91,389,400,-11,+0
1874,1761645508.034000,1761645508.027500,6.500,-17933.6,-298.89,391,400,-9,+0
1875,1761645509.037000,1761645509.029500,7.500,-17932.6,-298.88,391,399,-9,-1
1876,1761645510.038000,1761645510.031000,7.000,-17931.6,-298.86,391,399,-9,-1
1877,1761645511.040500,1761645511.031000,9.500,-17930.6,-298.84,389,400,-11,+0
1878,1761645512.038500,1761645512.031000,7.500,-17929.6,-298.83,391,399,-9,-1
1879,1761645513.037500,1761645513.029000,8.500,-17928.6,-298.81,392,400,-8,+0
1880,1761645514.037500,1761645514.032000,5.500,-17927.6,-298.79,781,400,+381,+0
1882,1761645516.037000,1761645516.031500,5.500,-17925.6,-298.76,390,400,-10,+0
1883,1761645517.034000,1761645517.033000,1.000,-17924.6,-298.74,393,400,-7,+0
1884,1761645518.038000,1761645518.032000,6.000,-17923.6,-298.73,393,400,-7,+0
1885,1761645519.037000,1761645519.031500,5.500,-17922.6,-298.71,394,400,-6,+0
1886,1761645520.038500,1761645520.035500,3.000,-17921.6,-298.69,392,400,-8,+0
1887,1761645521.040000,1761645521.034500,5.500,-17920.6,-298.68,390,400,-10,+0
1888,1761645522.043000,1761645522.035000,8.000,-17919.6,-298.66,391,399,-9,-1
1889,1761645523.040000,1761645523.035500,4.500,-17918.6,-298.64,391,400,-9,+0
1890,1761645524.040500,1761645524.036000,4.500,-17917.6,-298.63,390,401,-10,+1
1891,1761645525.041000,1761645525.037500,3.500,-17916.6,-298.61,392,400,-8,+0
1892,1761645526.044000,1761645526.036500,7.500,-17915.6,-298.59,390,400,-10,+0
1893,1761645527.042000,1761645527.037000,5.000,-17914.6,-298.58,390,400,-10,+0
1894,1761645528.045000,1761645528.036000,9.000,-17913.6,-298.56,391,400,-9,+0
1895,1761645529.042500,1761645529.036000,6.500,-17912.6,-298.54,392,399,-8,-1
1896,1761645530.047000,1761645530.036500,10.500,-17911.6,-298.53,388,400,-12,+0
1897,1761645531.044000,1761645531.038500,5.500,-17910.6,-298.51,392,400,-8,+0
1898,1761645532.044500,1761645532.040000,4.500,-17909.6,-298.49,392,400,-8,+0
1899,1761645533.045500,1761645533.038000,7.500,-17908.6,-298.48,393,400,-7,+0
1900,1761645534.048000,1761645534.038500,9.500,-17907.6,-298.46,389,400,-11,+0
1901,1761645535.044000,1761645535.039000,5.000,-17906.6,-298.44,391,399,-9,-1
1902,1761645536.044500,1761645536.038000,6.500,-17905.6,-298.43,393,400,-7,+0
1903,1761645537.047500,1761645537.042000,5.500,-17904.6,-298.41,392,399,-8,-1
1904,1761645538.045500,1761645538.039500,6.000,-17903.6,-298.39,392,400,-8,+0
1905,1761645539.048500,1761645539.040000,8.500,-17902.6,-298.38,392,399,-8,-1
1906,1761645540.049000,1761645540.040500,8.500,-17901.6,-298.36,392,400,-8,+0
1907,1761645541.047000,1761645541.041000,6.000,-17900.6,-298.34,392,401,-8,+1
1908,1761645542.047500,1761645542.044000,3.500,-17899.6,-298.33,392,399,-8,-1
1909,1761645543.048000,1761645543.043500,4.500,-17898.6,-298.31,389,400,-11,+0
1910,1761645544.048500,1761645544.042500,6.000,-17897.6,-298.29,391,400,-9,+0
1911,1761645545.046500,1761645545.043000,3.500,-17896.6,-298.28,393,400,-7,+0
1912,1761645546.049000,1761645546.043500,5.500,-17895.6,-298.26,391,400,-9,+0
1913,1761645547.049500,1761645547.046000,3.500,-17894.6,-298.24,392,400,-8,+0
1914,1761645548.049000,1761645548.045000,4.000,-17893.6,-298.23,392,399,-8,-1
1915,1761645549.049000,1761645549.045500,3.500,-17892.6,-298.21,393,400,-7,+0
1916,1761645550.052500,1761645550.046000,6.500,-17891.6,-298.19,391,401,-9,+1
1917,1761645551.051000,1761645551.046500,4.500,-17890.6,-298.18,391,400,-9,+0
1918,1761645552.051500,1761645552.048000,3.500,-17889.6,-298.16,391,400,-9,+0
1919,1761645553.052000,1761645553.046000,6.000,-17888.6,-298.14,392,400,-8,+0
1920,1761645554.054000,1761645554.046000,8.000,-17887.6,-298.13,391,400,-9,+0
1921,1761645555.052000,1761645555.046000,6.000,-17886.6,-298.11,390,400,-10,+0
1922,1761645556.054000,1761645556.047500,6.500,-17885.6,-298.09,390,400,-10,+0
1923,1761645557.054500,1761645557.046500,8.000,-17884.6,-298.08,389,400,-11,+0
1924,1761645558.054000,1761645558.046000,8.000,-17883.6,-298.06,391,400,-9,+0
1925,1761645559.052000,1761645559.046000,6.000,-17882.6,-298.04,390,401,-10,+1
1926,1761645560.056000,1761645560.049000,7.000,-17881.6,-298.03,388,400,-12,+0
1927,1761645561.054000,1761645561.048500,5.500,-17880.6,-298.01,390,400,-10,+0
1928,1761645562.058000,1761645562.049000,9.000,-17879.6,-297.99,390,400,-10,+0
1929,1761645563.055000,1761645563.050500,4.500,-17878.6,-297.98,391,400,-9,+0
1930,1761645564.058000,1761645564.050000,8.000,-17877.6,-297.96,391,400,-9,+0
1931,1761645565.054500,1761645565.048000,6.500,-17876.6,-297.94,390,401,-10,+1
1932,1761645566.056500,1761645566.052500,4.000,-17875.6,-297.93,393,400,-7,+0
1933,1761645567.057000,1761645567.050500,6.500,-17874.6,-297.91,390,400,-10,+0
1934,1761645568.056000,1761645568.050000,6.000,-17873.6,-297.89,390,401,-10,+1
1935,1761645569.056500,1761645569.054000,2.500,-17872.6,-297.88,390,399,-10,-1
1936,1761645570.058000,1761645570.053500,4.500,-17871.6,-297.86,391,399,-9,-1
1937,1761645571.058500,1761645571.055000,3.500,-17870.6,-297.84,390,400,-10,+0
1938,1761645572.059000,1761645572.053000,6.000,-17869.6,-297.83,390,399,-10,-1
1939,1761645573.059500,1761645573.052500,7.000,-17868.6,-297.81,389,400,-11,+0
1940,1761645574.057500,1761645574.053000,4.500,-17867.6,-297.79,389,400,-11,+0
1941,1761645575.057000,1761645575.053500,3.500,-17866.6,-297.78,391,400,-9,+0
1942,1761645576.061000,1761645576.054000,7.000,-17865.6,-297.76,390,400,-10,+0
1943,1761645577.062500,1761645577.053500,9.000,-17864.6,-297.74,391,401,-9,+1
1944,1761645578.059500,1761645578.055000,4.500,-17863.6,-297.73,391,398,-9,-2
1945,1761645579.062500,1761645579.056500,6.000,-17862.6,-297.71,390,400,-10,+0
