sync_num,icg_timestamp,ecg_timestamp,time_diff_ms,elapsed_time_s,elapsed_time_min,icg_samples_between,ecg_samples_between,icg_sample_deviation,ecg_sample_deviation,,,
1381,1761653255,1761653255,9.5,-18440.8,-307.35,782,400,382,0,,,1407439
2928,1761654803,1761654803,6.5,-16893.2,-281.55,782,400,382,0,,,1436737
236,1761652110,1761652110,4.5,-19586.2,-326.44,398,399,-2,-1,,,-29298
3569,1761655444,1761655444,9,-16252,-270.87,397,398,-3,-2,,,
237,1761652111,1761652111,6,-19585.2,-326.42,396,400,-4,0,,,
468,1761652342,1761652342,6.5,-19354.1,-322.57,396,399,-4,-1,,,
584,1761652458,1761652458,9,-19238.1,-320.63,396,401,-4,1,,,
736,1761652610,1761652610,5.5,-19086,-318.1,396,400,-4,0,,,
924,1761652798,1761652798,6,-18898,-314.97,396,401,-4,1,,,
962,1761652836,1761652836,7,-18859.9,-314.33,396,400,-4,0,,,
1808,1761653683,1761653683,1.5,-18013.6,-300.23,396,399,-4,-1,,,
2379,1761654254,1761654254,7.5,-17442.4,-290.71,396,400,-4,0,,,
2767,1761654642,1761654642,9,-17054.3,-284.24,396,400,-4,0,,,
2855,1761654730,1761654730,12,-16966.2,-282.77,396,399,-4,-1,,,
3252,1761655127,1761655127,6,-16569.1,-276.15,396,400,-4,0,,,
3389,1761655264,1761655264,5,-16432.1,-273.87,396,401,-4,1,,,
152,1761652026,1761652026,1,-19670.3,-327.84,395,397,-5,-3,,,
153,1761652027,1761652027,8,-19669.3,-327.82,395,399,-5,-1,,,
154,1761652028,1761652028,5.5,-19668.3,-327.8,395,400,-5,0,,,
238,1761652112,1761652112,7,-19584.2,-326.4,395,400,-5,0,,,
239,1761652113,1761652113,1,-19583.2,-326.39,395,399,-5,-1,,,
352,1761652226,1761652226,3,-19470.2,-324.5,395,399,-5,-1,,,
355,1761652229,1761652229,3,-19467.2,-324.45,395,400,-5,0,,,
466,1761652340,1761652340,5.5,-19356.1,-322.6,395,400,-5,0,,,
469,1761652343,1761652343,4,-19353.1,-322.55,395,400,-5,0,,,
471,1761652345,1761652345,4,-19351.1,-322.52,395,399,-5,-1,,,
585,1761652459,1761652459,7,-19237.1,-320.62,395,400,-5,0,,,
587,1761652461,1761652461,6.5,-19235.1,-320.58,395,400,-5,0,,,
894,1761652768,1761652768,2.5,-18928,-315.47,395,399,-5,-1,,,
923,1761652797,1761652797,4,-18899,-314.98,395,400,-5,0,,,
925,1761652799,1761652799,1.5,-18897,-314.95,395,399,-5,-1,,,
967,1761652841,1761652841,3.5,-18854.9,-314.25,395,400,-5,0,,,
1013,1761652887,1761652887,9,-18808.9,-313.48,395,400,-5,0,,,
1019,1761652893,1761652893,8.5,-18802.9,-313.38,395,401,-5,1,,,
1153,1761653027,1761653027,10,-18668.9,-311.15,395,400,-5,0,,,
1155,1761653029,1761653029,3.5,-18666.9,-311.11,395,400,-5,0,,,
1157,1761653031,1761653031,4,-18664.9,-311.08,395,400,-5,0,,,
1308,1761653182,1761653182,6.5,-18513.8,-308.56,395,398,-5,-2,,,
1533,1761653407,1761653407,5,-18288.7,-304.81,395,400,-5,0,,,
1760,1761653635,1761653635,6.5,-18061.6,-301.03,395,400,-5,0,,,
1816,1761653691,1761653691,8,-18005.6,-300.09,395,400,-5,0,,,
1868,1761653743,1761653743,2.5,-17953.6,-299.23,395,398,-5,-2,,,
2016,1761653891,1761653891,4.5,-17805.6,-296.76,395,399,-5,-1,,,
2018,1761653893,1761653893,6,-17803.6,-296.73,395,399,-5,-1,,,
2135,1761654010,1761654010,6.5,-17686.5,-294.78,395,398,-5,-2,,,
2238,1761654113,1761654113,2.5,-17583.5,-293.06,395,399,-5,-1,,,
2277,1761654152,1761654152,6.5,-17544.5,-292.41,395,400,-5,0,,,
2280,1761654155,1761654155,5.5,-17541.5,-292.36,395,400,-5,0,,,
2319,1761654194,1761654194,7.5,-17502.4,-291.71,395,401,-5,1,,,
2330,1761654205,1761654205,6.5,-17491.4,-291.52,395,401,-5,1,,,
2375,1761654250,1761654250,8.5,-17446.4,-290.77,395,400,-5,0,,,
2720,1761654595,1761654595,6.5,-17101.3,-285.02,395,399,-5,-1,,,
2844,1761654719,1761654719,9,-16977.2,-282.95,395,401,-5,1,,,
3096,1761654971,1761654971,7.5,-16725.2,-278.75,395,401,-5,1,,,
3099,1761654974,1761654974,11,-16722.2,-278.7,395,400,-5,0,,,
3443,1761655318,1761655318,8.5,-16378,-272.97,395,400,-5,0,,,
3568,1761655443,1761655443,6,-16253,-270.88,395,400,-5,0,,,
3581,1761655456,1761655456,1.5,-16240,-270.67,395,399,-5,-1,,,
41,1761651915,1761651915,4,-19781.3,-329.69,394,399,-6,-1,,,
48,1761651922,1761651922,8.5,-19774.3,-329.57,394,400,-6,0,,,
126,1761652000,1761652000,7,-19696.3,-328.27,394,400,-6,0,,,
127,1761652001,1761652001,7,-19695.3,-328.25,394,400,-6,0,,,
161,1761652035,1761652035,9,-19661.3,-327.69,394,400,-6,0,,,
271,1761652145,1761652145,5.5,-19551.2,-325.85,394,399,-6,-1,,,
313,1761652187,1761652187,10,-19509.2,-325.15,394,400,-6,0,,,
326,1761652200,1761652200,7.5,-19496.2,-324.94,394,399,-6,-1,,,
353,1761652227,1761652227,6.5,-19469.2,-324.49,394,399,-6,-1,,,
354,1761652228,1761652228,5.5,-19468.2,-324.47,394,400,-6,0,,,
356,1761652230,1761652230,5.5,-19466.2,-324.44,394,401,-6,1,,,
427,1761652301,1761652301,6.5,-19395.2,-323.25,394,400,-6,0,,,
448,1761652322,1761652322,7.5,-19374.1,-322.9,394,400,-6,0,,,
472,1761652346,1761652346,5,-19350.1,-322.5,394,400,-6,0,,,
476,1761652350,1761652350,9.5,-19346.1,-322.44,394,399,-6,-1,,,
498,1761652372,1761652372,2.5,-19324.1,-322.07,394,399,-6,-1,,,
582,1761652456,1761652456,6.5,-19240.1,-320.67,394,398,-6,-2,,,
583,1761652457,1761652457,3,-19239.1,-320.65,394,400,-6,0,,,
588,1761652462,1761652462,8,-19234.1,-320.57,394,399,-6,-1,,,
651,1761652525,1761652525,4,-19171.1,-319.52,394,399,-6,-1,,,
679,1761652553,1761652553,6,-19143.1,-319.05,394,400,-6,0,,,
732,1761652606,1761652606,7,-19090,-318.17,394,401,-6,1,,,
734,1761652608,1761652608,8,-19088,-318.13,394,399,-6,-1,,,
735,1761652609,1761652609,7,-19087,-318.12,394,400,-6,0,,,
777,1761652651,1761652651,7,-19045,-317.42,394,400,-6,0,,,
859,1761652733,1761652733,9.5,-18963,-316.05,394,399,-6,-1,,,
921,1761652795,1761652795,6.5,-18901,-315.02,394,400,-6,0,,,
922,1761652796,1761652796,8,-18900,-315,394,400,-6,0,,,
926,1761652800,1761652800,7.5,-18896,-314.93,394,400,-6,0,,,
992,1761652866,1761652866,3,-18829.9,-313.83,394,399,-6,-1,,,
1014,1761652888,1761652888,2,-18807.9,-313.47,394,399,-6,-1,,,
1015,1761652889,1761652889,8,-18806.9,-313.45,394,398,-6,-2,,,
1040,1761652914,1761652914,0,-18781.9,-313.03,394,399,-6,-1,,,
1156,1761653030,1761653030,6,-18665.9,-311.1,394,400,-6,0,,,
1158,1761653032,1761653032,6,-18663.9,-311.06,394,400,-6,0,,,
1191,1761653065,1761653065,5,-18630.9,-310.51,394,398,-6,-2,,,
1202,1761653076,1761653076,9.5,-18619.9,-310.33,394,399,-6,-1,,,
1204,1761653078,1761653078,6.5,-18617.9,-310.3,394,399,-6,-1,,,
1225,1761653099,1761653099,1,-18596.9,-309.95,394,399,-6,-1,,,
1229,1761653103,1761653103,3,-18592.9,-309.88,394,400,-6,0,,,
1298,1761653172,1761653172,5.5,-18523.8,-308.73,394,400,-6,0,,,
1342,1761653216,1761653216,9,-18479.8,-308,394,399,-6,-1,,,
1354,1761653228,1761653228,1.5,-18467.8,-307.8,394,399,-6,-1,,,
1383,1761653257,1761653257,4,-18438.8,-307.31,394,398,-6,-2,,,
1384,1761653258,1761653258,1.5,-18437.8,-307.3,394,399,-6,-1,,,
1394,1761653268,1761653268,4.5,-18427.8,-307.13,394,400,-6,0,,,
1405,1761653279,1761653279,11.5,-18416.8,-306.95,394,401,-6,1,,,
1415,1761653289,1761653289,8.5,-18406.8,-306.78,394,400,-6,0,,,
1447,1761653321,1761653321,8.5,-18374.8,-306.25,394,400,-6,0,,,
1448,1761653322,1761653322,8.5,-18373.8,-306.23,394,400,-6,0,,,
1450,1761653324,1761653324,3.5,-18371.8,-306.2,394,400,-6,0,,,
1451,1761653325,1761653325,4.5,-18370.8,-306.18,394,400,-6,0,,,
1452,1761653326,1761653326,6,-18369.8,-306.16,394,399,-6,-1,,,
1479,1761653353,1761653353,5,-18342.8,-305.71,394,398,-6,-2,,,
1490,1761653364,1761653364,7,-18331.8,-305.53,394,400,-6,0,,,
1593,1761653467,1761653467,5,-18228.7,-303.81,394,398,-6,-2,,,
1621,1761653495,1761653495,4.5,-18200.7,-303.35,394,400,-6,0,,,
1680,1761653555,1761653554,6,-18141.7,-302.36,394,400,-6,0,,,
1724,1761653599,1761653599,5.5,-18097.7,-301.63,394,400,-6,0,,,
1740,1761653615,1761653615,8,-18081.7,-301.36,394,398,-6,-2,,,
1809,1761653684,1761653684,3.5,-18012.6,-300.21,394,400,-6,0,,,
1810,1761653685,1761653685,1,-18011.6,-300.19,394,400,-6,0,,,
1818,1761653693,1761653693,7,-18003.6,-300.06,394,400,-6,0,,,
1819,1761653694,1761653694,3.5,-18002.6,-300.04,394,400,-6,0,,,
1845,1761653720,1761653720,2.5,-17976.6,-299.61,394,400,-6,0,,,
1846,1761653721,1761653721,7.5,-17975.6,-299.59,394,400,-6,0,,,
1871,1761653746,1761653746,6.5,-17950.6,-299.18,394,400,-6,0,,,
1916,1761653791,1761653791,12,-17905.6,-298.43,394,398,-6,-2,,,
2012,1761653887,1761653887,6,-17809.6,-296.83,394,400,-6,0,,,
2013,1761653888,1761653888,4.5,-17808.6,-296.81,394,400,-6,0,,,
2021,1761653896,1761653896,4,-17800.6,-296.68,394,400,-6,0,,,
2022,1761653897,1761653897,6.5,-17799.6,-296.66,394,400,-6,0,,,
2036,1761653911,1761653911,7,-17785.5,-296.43,394,399,-6,-1,,,
2232,1761654107,1761654107,7.5,-17589.5,-293.16,394,401,-6,1,,,
2276,1761654151,1761654151,4.5,-17545.5,-292.42,394,400,-6,0,,,
2278,1761654153,1761654153,5.5,-17543.5,-292.39,394,400,-6,0,,,
2281,1761654156,1761654156,6.5,-17540.5,-292.34,394,400,-6,0,,,
2414,1761654289,1761654289,3,-17407.4,-290.12,394,398,-6,-2,,,
2464,1761654339,1761654339,3,-17357.4,-289.29,394,399,-6,-1,,,
2476,1761654351,1761654351,3,-17345.4,-289.09,394,399,-6,-1,,,
2482,1761654357,1761654357,6.5,-17339.4,-288.99,394,401,-6,1,,,
2489,1761654364,1761654364,6,-17332.4,-288.87,394,399,-6,-1,,,
2618,1761654493,1761654493,9.5,-17203.3,-286.72,394,400,-6,0,,,
2628,1761654503,1761654503,9,-17193.3,-286.56,394,398,-6,-2,,,
2653,1761654528,1761654528,8,-17168.3,-286.14,394,397,-6,-3,,,
2710,1761654585,1761654585,8.5,-17111.3,-285.19,394,400,-6,0,,,
2739,1761654614,1761654614,7.5,-17082.3,-284.7,394,400,-6,0,,,
2748,1761654623,1761654623,5,-17073.3,-284.55,394,400,-6,0,,,
2765,1761654640,1761654640,8,-17056.3,-284.27,394,400,-6,0,,,
2781,1761654656,1761654656,6.5,-17040.3,-284,394,400,-6,0,,,
2812,1761654687,1761654687,7.5,-17009.3,-283.49,394,400,-6,0,,,
2845,1761654720,1761654720,5.5,-16976.2,-282.94,394,400,-6,0,,,
2856,1761654731,1761654731,6,-16965.2,-282.75,394,400,-6,0,,,
2857,1761654732,1761654732,5,-16964.2,-282.74,394,400,-6,0,,,
2858,1761654733,1761654733,6,-16963.2,-282.72,394,399,-6,-1,,,
2940,1761654815,1761654815,6,-16881.2,-281.35,394,400,-6,0,,,
3022,1761654897,1761654897,3,-16799.2,-279.99,394,399,-6,-1,,,
3028,1761654903,1761654903,5,-16793.2,-279.89,394,400,-6,0,,,
3184,1761655059,1761655059,5.5,-16637.1,-277.29,394,399,-6,-1,,,
3188,1761655063,1761655063,7.5,-16633.1,-277.22,394,400,-6,0,,,
3312,1761655187,1761655187,10,-16509.1,-275.15,394,400,-6,0,,,
3390,1761655265,1761655265,1,-16431.1,-273.85,394,399,-6,-1,,,
3440,1761655315,1761655315,11,-16381,-273.02,394,399,-6,-1,,,
3500,1761655375,1761655375,2.5,-16321,-272.02,394,399,-6,-1,,,
3501,1761655376,1761655376,5.5,-16320,-272,394,400,-6,0,,,
3516,1761655391,1761655391,5,-16305,-271.75,394,399,-6,-1,,,
3523,1761655398,1761655398,10.5,-16298,-271.63,394,398,-6,-2,,,
3566,1761655441,1761655441,9.5,-16255,-270.92,394,399,-6,-1,,,
3571,1761655446,1761655446,4,-16250,-270.83,394,400,-6,0,,,
3572,1761655447,1761655447,4,-16249,-270.82,394,400,-6,0,,,
21,1761651895,1761651895,19,-19801.3,-330.02,393,399,-7,-1,,,
38,1761651912,1761651912,8,-19784.3,-329.74,393,400,-7,0,,,
39,1761651913,1761651913,6.5,-19783.3,-329.72,393,400,-7,0,,,
74,1761651948,1761651948,6,-19748.3,-329.14,393,400,-7,0,,,
75,1761651949,1761651949,4.5,-19747.3,-329.12,393,397,-7,-3,,,
77,1761651951,1761651951,10.5,-19745.3,-329.09,393,399,-7,-1,,,
87,1761651961,1761651961,7.5,-19735.3,-328.92,393,399,-7,-1,,,
96,1761651970,1761651970,5,-19726.3,-328.77,393,399,-7,-1,,,
101,1761651975,1761651975,12,-19721.3,-328.69,393,401,-7,1,,,
121,1761651995,1761651995,9,-19701.3,-328.35,393,400,-7,0,,,
132,1761652006,1761652006,9,-19690.3,-328.17,393,399,-7,-1,,,
134,1761652008,1761652008,4,-19688.3,-328.14,393,400,-7,0,,,
144,1761652018,1761652018,6,-19678.3,-327.97,393,400,-7,0,,,
150,1761652024,1761652024,6,-19672.3,-327.87,393,400,-7,0,,,
162,1761652036,1761652036,7,-19660.3,-327.67,393,401,-7,1,,,
167,1761652041,1761652041,9,-19655.2,-327.59,393,400,-7,0,,,
176,1761652050,1761652050,2.5,-19646.2,-327.44,393,399,-7,-1,,,
178,1761652052,1761652052,7.5,-19644.2,-327.4,393,399,-7,-1,,,
201,1761652075,1761652075,7.5,-19621.2,-327.02,393,399,-7,-1,,,
204,1761652078,1761652078,9.5,-19618.2,-326.97,393,400,-7,0,,,
205,1761652079,1761652079,4,-19617.2,-326.95,393,400,-7,0,,,
230,1761652104,1761652104,7.5,-19592.2,-326.54,393,399,-7,-1,,,
235,1761652109,1761652109,8.5,-19587.2,-326.45,393,398,-7,-2,,,
240,1761652114,1761652114,9.5,-19582.2,-326.37,393,400,-7,0,,,
262,1761652136,1761652136,4.5,-19560.2,-326,393,400,-7,0,,,
270,1761652144,1761652144,2.5,-19552.2,-325.87,393,399,-7,-1,,,
272,1761652146,1761652146,5.5,-19550.2,-325.84,393,400,-7,0,,,
314,1761652188,1761652188,9,-19508.2,-325.14,393,400,-7,0,,,
315,1761652189,1761652189,9.5,-19507.2,-325.12,393,400,-7,0,,,
316,1761652190,1761652190,5.5,-19506.2,-325.1,393,400,-7,0,,,
345,1761652219,1761652219,10.5,-19477.2,-324.62,393,399,-7,-1,,,
362,1761652236,1761652236,4.5,-19460.2,-324.34,393,399,-7,-1,,,
364,1761652238,1761652238,8.5,-19458.2,-324.3,393,400,-7,0,,,
373,1761652247,1761652247,5,-19449.2,-324.15,393,401,-7,1,,,
386,1761652260,1761652260,9.5,-19436.2,-323.94,393,400,-7,0,,,
394,1761652268,1761652268,11,-19428.2,-323.8,393,400,-7,0,,,
403,1761652277,1761652277,5,-19419.2,-323.65,393,399,-7,-1,,,
415,1761652289,1761652289,10.5,-19407.2,-323.45,393,399,-7,-1,,,
436,1761652310,1761652310,6,-19386.2,-323.1,393,399,-7,-1,,,
437,1761652311,1761652311,9,-19385.2,-323.09,393,401,-7,1,,,
445,1761652319,1761652319,7.5,-19377.1,-322.95,393,399,-7,-1,,,
465,1761652339,1761652339,10.5,-19357.1,-322.62,393,399,-7,-1,,,
470,1761652344,1761652344,10,-19352.1,-322.54,393,401,-7,1,,,
474,1761652348,1761652348,6,-19348.1,-322.47,393,400,-7,0,,,
489,1761652363,1761652363,4,-19333.1,-322.22,393,400,-7,0,,,
493,1761652367,1761652367,9,-19329.1,-322.15,393,400,-7,0,,,
503,1761652377,1761652377,10.5,-19319.1,-321.99,393,399,-7,-1,,,
508,1761652382,1761652382,7,-19314.1,-321.9,393,400,-7,0,,,
510,1761652384,1761652384,5,-19312.1,-321.87,393,400,-7,0,,,
544,1761652418,1761652418,4.5,-19278.1,-321.3,393,399,-7,-1,,,
577,1761652451,1761652451,2.5,-19245.1,-320.75,393,398,-7,-2,,,
609,1761652483,1761652483,9.5,-19213.1,-320.22,393,399,-7,-1,,,
613,1761652487,1761652487,9,-19209.1,-320.15,393,399,-7,-1,,,
614,1761652488,1761652488,1.5,-19208.1,-320.13,393,398,-7,-2,,,
617,1761652491,1761652491,7.5,-19205.1,-320.08,393,398,-7,-2,,,
622,1761652496,1761652496,5.5,-19200.1,-320,393,400,-7,0,,,
646,1761652520,1761652520,9,-19176.1,-319.6,393,400,-7,0,,,
650,1761652524,1761652524,8.5,-19172.1,-319.53,393,400,-7,0,,,
680,1761652554,1761652554,9,-19142.1,-319.03,393,400,-7,0,,,
694,1761652568,1761652568,12,-19128,-318.8,393,400,-7,0,,,
720,1761652594,1761652594,3.5,-19102,-318.37,393,398,-7,-2,,,
722,1761652596,1761652596,5.5,-19100,-318.33,393,400,-7,0,,,
733,1761652607,1761652607,3,-19089,-318.15,393,400,-7,0,,,
770,1761652644,1761652644,8.5,-19052,-317.53,393,400,-7,0,,,
772,1761652646,1761652646,12.5,-19050,-317.5,393,399,-7,-1,,,
788,1761652662,1761652662,3,-19034,-317.23,393,400,-7,0,,,
816,1761652690,1761652690,5.5,-19006,-316.77,393,401,-7,1,,,
835,1761652709,1761652709,10.5,-18987,-316.45,393,399,-7,-1,,,
837,1761652711,1761652711,9,-18985,-316.42,393,401,-7,1,,,
841,1761652715,1761652715,7.5,-18981,-316.35,393,400,-7,0,,,
866,1761652740,1761652740,9,-18956,-315.93,393,401,-7,1,,,
895,1761652769,1761652769,2.5,-18927,-315.45,393,400,-7,0,,,
911,1761652785,1761652785,7,-18911,-315.18,393,400,-7,0,,,
937,1761652811,1761652811,4.5,-18885,-314.75,393,399,-7,-1,,,
943,1761652817,1761652817,2,-18879,-314.65,393,398,-7,-2,,,
944,1761652818,1761652818,6.5,-18878,-314.63,393,400,-7,0,,,
952,1761652826,1761652826,9,-18869.9,-314.5,393,400,-7,0,,,
993,1761652867,1761652867,7.5,-18828.9,-313.82,393,400,-7,0,,,
1017,1761652891,1761652891,9,-18804.9,-313.42,393,400,-7,0,,,
1021,1761652895,1761652895,9,-18800.9,-313.35,393,400,-7,0,,,
1026,1761652900,1761652900,4,-18795.9,-313.27,393,399,-7,-1,,,
1059,1761652933,1761652933,6.5,-18762.9,-312.72,393,399,-7,-1,,,
1084,1761652958,1761652958,10.5,-18737.9,-312.3,393,400,-7,0,,,
1088,1761652962,1761652962,8.5,-18733.9,-312.23,393,399,-7,-1,,,
1098,1761652972,1761652972,2.5,-18723.9,-312.07,393,400,-7,0,,,
1124,1761652998,1761652998,8,-18697.9,-311.63,393,400,-7,0,,,
1134,1761653008,1761653008,2,-18687.9,-311.46,393,399,-7,-1,,,
1150,1761653024,1761653024,9.5,-18671.9,-311.2,393,400,-7,0,,,
1154,1761653028,1761653028,9.5,-18667.9,-311.13,393,401,-7,1,,,
1170,1761653044,1761653044,7.5,-18651.9,-310.86,393,398,-7,-2,,,
1190,1761653064,1761653064,8.5,-18631.9,-310.53,393,399,-7,-1,,,
1195,1761653069,1761653069,4,-18626.9,-310.45,393,400,-7,0,,,
1234,1761653108,1761653108,8.5,-18587.8,-309.8,393,399,-7,-1,,,
1238,1761653112,1761653112,7.5,-18583.8,-309.73,393,400,-7,0,,,
1244,1761653118,1761653118,8.5,-18577.8,-309.63,393,398,-7,-2,,,
1251,1761653125,1761653125,4.5,-18570.8,-309.51,393,401,-7,1,,,
1258,1761653132,1761653132,8,-18563.8,-309.4,393,400,-7,0,,,
1275,1761653149,1761653149,9,-18546.8,-309.11,393,397,-7,-3,,,
1276,1761653150,1761653150,3,-18545.8,-309.1,393,399,-7,-1,,,
1290,1761653164,1761653164,9.5,-18531.8,-308.86,393,400,-7,0,,,
1310,1761653184,1761653184,10,-18511.8,-308.53,393,399,-7,-1,,,
1311,1761653185,1761653185,5,-18510.8,-308.51,393,400,-7,0,,,
1325,1761653199,1761653199,3.5,-18496.8,-308.28,393,398,-7,-2,,,
1337,1761653211,1761653211,8,-18484.8,-308.08,393,399,-7,-1,,,
1339,1761653213,1761653213,4,-18482.8,-308.05,393,400,-7,0,,,
1346,1761653220,1761653220,4,-18475.8,-307.93,393,400,-7,0,,,
1353,1761653227,1761653227,6,-18468.8,-307.81,393,400,-7,0,,,
1365,1761653239,1761653239,8.5,-18456.8,-307.61,393,400,-7,0,,,
1366,1761653240,1761653240,5.5,-18455.8,-307.6,393,400,-7,0,,,
1372,1761653246,1761653246,8.5,-18449.8,-307.5,393,399,-7,-1,,,
1377,1761653251,1761653251,9,-18444.8,-307.41,393,398,-7,-2,,,
1378,1761653252,1761653252,11,-18443.8,-307.4,393,399,-7,-1,,,
1391,1761653265,1761653265,6,-18430.8,-307.18,393,401,-7,1,,,
1395,1761653269,1761653269,8,-18426.8,-307.11,393,399,-7,-1,,,
1396,1761653270,1761653270,6,-18425.8,-307.1,393,398,-7,-2,,,
1397,1761653271,1761653271,7.5,-18424.8,-307.08,393,399,-7,-1,,,
1403,1761653277,1761653277,8,-18418.8,-306.98,393,399,-7,-1,,,
1429,1761653303,1761653303,8.5,-18392.8,-306.55,393,400,-7,0,,,
1445,1761653319,1761653319,8.5,-18376.8,-306.28,393,400,-7,0,,,
1446,1761653320,1761653320,4,-18375.8,-306.26,393,399,-7,-1,,,
1449,1761653323,1761653323,3.5,-18372.8,-306.21,393,400,-7,0,,,
1457,1761653331,1761653331,4,-18364.8,-306.08,393,400,-7,0,,,
1467,1761653341,1761653341,3.5,-18354.8,-305.91,393,398,-7,-2,,,
1503,1761653377,1761653377,4.5,-18318.7,-305.31,393,400,-7,0,,,
1526,1761653400,1761653400,1,-18295.7,-304.93,393,397,-7,-3,,,
1529,1761653403,1761653403,10,-18292.7,-304.88,393,399,-7,-1,,,
1548,1761653422,1761653422,4,-18273.7,-304.56,393,400,-7,0,,,
1587,1761653461,1761653461,3.5,-18234.7,-303.91,393,399,-7,-1,,,
1604,1761653478,1761653478,7,-18217.7,-303.63,393,400,-7,0,,,
1605,1761653479,1761653479,5.5,-18216.7,-303.61,393,400,-7,0,,,
1622,1761653496,1761653496,6,-18199.7,-303.33,393,400,-7,0,,,
1662,1761653536,1761653536,6.5,-18159.7,-302.66,393,399,-7,-1,,,
1671,1761653545,1761653545,6.5,-18150.7,-302.51,393,401,-7,1,,,
1678,1761653553,1761653553,6,-18143.7,-302.39,393,397,-7,-3,,,
1689,1761653564,1761653564,3,-18132.7,-302.21,393,400,-7,0,,,
1690,1761653565,1761653565,7,-18131.7,-302.19,393,396,-7,-4,,,
1695,1761653570,1761653570,0.5,-18126.7,-302.11,393,398,-7,-2,,,
1702,1761653577,1761653577,9,-18119.7,-301.99,393,400,-7,0,,,
1742,1761653617,1761653617,11.5,-18079.7,-301.33,393,399,-7,-1,,,
1743,1761653618,1761653618,4,-18078.7,-301.31,393,399,-7,-1,,,
1764,1761653639,1761653639,9.5,-18057.6,-300.96,393,401,-7,1,,,
1775,1761653650,1761653650,6.5,-18046.6,-300.78,393,398,-7,-2,,,
1778,1761653653,1761653653,8,-18043.6,-300.73,393,397,-7,-3,,,
1794,1761653669,1761653669,9.5,-18027.6,-300.46,393,400,-7,0,,,
1802,1761653677,1761653677,14,-18019.6,-300.33,393,400,-7,0,,,
1805,1761653680,1761653680,4,-18016.6,-300.28,393,399,-7,-1,,,
1806,1761653681,1761653681,4,-18015.6,-300.26,393,398,-7,-2,,,
1813,1761653688,1761653688,1.5,-18008.6,-300.14,393,396,-7,-4,,,
1815,1761653690,1761653690,10,-18006.6,-300.11,393,400,-7,0,,,
1817,1761653692,1761653692,4.5,-18004.6,-300.08,393,400,-7,0,,,
1821,1761653696,1761653696,4,-18000.6,-300.01,393,400,-7,0,,,
1823,1761653698,1761653698,2,-17998.6,-299.98,393,400,-7,0,,,
1847,1761653722,1761653722,6.5,-17974.6,-299.58,393,400,-7,0,,,
1870,1761653745,1761653745,9,-17951.6,-299.19,393,400,-7,0,,,
1880,1761653755,1761653755,3.5,-17941.6,-299.03,393,400,-7,0,,,
1882,1761653757,1761653757,7,-17939.6,-298.99,393,399,-7,-1,,,
1883,1761653758,1761653758,5.5,-17938.6,-298.98,393,399,-7,-1,,,
1884,1761653759,1761653759,6.5,-17937.6,-298.96,393,400,-7,0,,,
1903,1761653778,1761653778,6.5,-17918.6,-298.64,393,399,-7,-1,,,
1941,1761653816,1761653816,8,-17880.6,-298.01,393,399,-7,-1,,,
1951,1761653826,1761653826,8.5,-17870.6,-297.84,393,400,-7,0,,,
1983,1761653858,1761653858,9,-17838.6,-297.31,393,400,-7,0,,,
2009,1761653884,1761653884,3,-17812.6,-296.88,393,399,-7,-1,,,
2026,1761653901,1761653901,10,-17795.5,-296.59,393,399,-7,-1,,,
2029,1761653904,1761653904,4.5,-17792.6,-296.54,393,401,-7,1,,,
2037,1761653912,1761653912,1.5,-17784.5,-296.41,393,399,-7,-1,,,
2040,1761653915,1761653915,11.5,-17781.5,-296.36,393,399,-7,-1,,,
2073,1761653948,1761653948,5.5,-17748.5,-295.81,393,400,-7,0,,,
2113,1761653988,1761653988,9,-17708.5,-295.14,393,399,-7,-1,,,
2134,1761654009,1761654009,7,-17687.5,-294.79,393,400,-7,0,,,
2151,1761654026,1761654026,9.5,-17670.5,-294.51,393,398,-7,-2,,,
2154,1761654029,1761654029,2,-17667.5,-294.46,393,399,-7,-1,,,
2179,1761654054,1761654054,4,-17642.5,-294.04,393,400,-7,0,,,
2182,1761654057,1761654057,9.5,-17639.5,-293.99,393,399,-7,-1,,,
2189,1761654064,1761654064,13.5,-17632.5,-293.87,393,401,-7,1,,,
2196,1761654071,1761654071,5.5,-17625.5,-293.76,393,399,-7,-1,,,
2227,1761654102,1761654102,5,-17594.5,-293.24,393,400,-7,0,,,
2245,1761654120,1761654120,5.5,-17576.5,-292.94,393,399,-7,-1,,,
2247,1761654122,1761654122,2.5,-17574.5,-292.91,393,400,-7,0,,,
2254,1761654129,1761654129,2.5,-17567.5,-292.79,393,400,-7,0,,,
2261,1761654136,1761654136,7,-17560.5,-292.67,393,400,-7,0,,,
2279,1761654154,1761654154,5.5,-17542.5,-292.37,393,399,-7,-1,,,
2284,1761654159,1761654159,6.5,-17537.5,-292.29,393,399,-7,-1,,,
2297,1761654172,1761654172,9,-17524.5,-292.07,393,399,-7,-1,,,
2300,1761654175,1761654175,3,-17521.5,-292.02,393,400,-7,0,,,
2301,1761654176,1761654176,9,-17520.4,-292.01,393,400,-7,0,,,
2325,1761654200,1761654200,7.5,-17496.4,-291.61,393,400,-7,0,,,
2337,1761654212,1761654212,12,-17484.4,-291.41,393,400,-7,0,,,
2339,1761654214,1761654214,10,-17482.4,-291.37,393,398,-7,-2,,,
2342,1761654217,1761654217,5,-17479.4,-291.32,393,400,-7,0,,,
2344,1761654219,1761654219,3.5,-17477.4,-291.29,393,400,-7,0,,,
2347,1761654222,1761654222,8,-17474.4,-291.24,393,399,-7,-1,,,
2393,1761654268,1761654268,8,-17428.4,-290.47,393,400,-7,0,,,
2401,1761654276,1761654276,7,-17420.4,-290.34,393,399,-7,-1,,,
2413,1761654288,1761654288,9.5,-17408.4,-290.14,393,398,-7,-2,,,
2415,1761654290,1761654290,7.5,-17406.4,-290.11,393,400,-7,0,,,
2449,1761654324,1761654324,9.5,-17372.4,-289.54,393,399,-7,-1,,,
2466,1761654341,1761654341,1.5,-17355.4,-289.26,393,398,-7,-2,,,
2485,1761654360,1761654360,8.5,-17336.4,-288.94,393,400,-7,0,,,
2502,1761654377,1761654377,1,-17319.4,-288.66,393,399,-7,-1,,,
2503,1761654378,1761654378,7,-17318.4,-288.64,393,400,-7,0,,,
2513,1761654388,1761654388,10.5,-17308.4,-288.47,393,400,-7,0,,,
2518,1761654393,1761654393,4.5,-17303.4,-288.39,393,399,-7,-1,,,
2527,1761654402,1761654402,9.5,-17294.4,-288.24,393,399,-7,-1,,,
2534,1761654409,1761654409,6,-17287.4,-288.12,393,399,-7,-1,,,
2545,1761654420,1761654420,2,-17276.4,-287.94,393,399,-7,-1,,,
2605,1761654480,1761654480,3,-17216.3,-286.94,393,400,-7,0,,,
2606,1761654481,1761654481,6,-17215.3,-286.92,393,400,-7,0,,,
2645,1761654520,1761654520,7.5,-17176.3,-286.27,393,400,-7,0,,,
2650,1761654525,1761654525,7.5,-17171.3,-286.19,393,400,-7,0,,,
2654,1761654529,1761654529,11.5,-17167.3,-286.12,393,400,-7,0,,,
2723,1761654598,1761654598,7.5,-17098.3,-284.97,393,400,-7,0,,,
2743,1761654618,1761654618,6.5,-17078.3,-284.64,393,398,-7,-2,,,
2744,1761654619,1761654619,9,-17077.3,-284.62,393,400,-7,0,,,
2747,1761654622,1761654622,10,-17074.3,-284.57,393,399,-7,-1,,,
2749,1761654624,1761654624,6,-17072.3,-284.54,393,399,-7,-1,,,
2764,1761654639,1761654639,4.5,-17057.3,-284.29,393,399,-7,-1,,,
2777,1761654652,1761654652,6,-17044.3,-284.07,393,400,-7,0,,,
2787,1761654662,1761654662,5.5,-17034.3,-283.9,393,399,-7,-1,,,
2789,1761654664,1761654664,6.5,-17032.3,-283.87,393,399,-7,-1,,,
2792,1761654667,1761654667,2.5,-17029.3,-283.82,393,399,-7,-1,,,
2793,1761654668,1761654668,8,-17028.3,-283.8,393,400,-7,0,,,
2795,1761654670,1761654670,7,-17026.3,-283.77,393,400,-7,0,,,
2803,1761654678,1761654678,9,-17018.3,-283.64,393,398,-7,-2,,,
2805,1761654680,1761654680,5.5,-17016.3,-283.6,393,400,-7,0,,,
2806,1761654681,1761654681,7.5,-17015.3,-283.59,393,400,-7,0,,,
2811,1761654686,1761654686,11,-17010.3,-283.5,393,399,-7,-1,,,
2836,1761654711,1761654711,4.5,-16985.3,-283.09,393,400,-7,0,,,
2852,1761654727,1761654727,12,-16969.2,-282.82,393,397,-7,-3,,,
2854,1761654729,1761654729,7.5,-16967.2,-282.79,393,400,-7,0,,,
2870,1761654745,1761654745,5,-16951.2,-282.52,393,400,-7,0,,,
2877,1761654752,1761654752,6.5,-16944.2,-282.4,393,400,-7,0,,,
2880,1761654755,1761654755,6,-16941.2,-282.35,393,400,-7,0,,,
2895,1761654770,1761654770,9,-16926.2,-282.1,393,400,-7,0,,,
2897,1761654772,1761654772,7,-16924.2,-282.07,393,400,-7,0,,,
2912,1761654787,1761654787,5.5,-16909.2,-281.82,393,399,-7,-1,,,
2949,1761654824,1761654824,1.5,-16872.2,-281.2,393,400,-7,0,,,
2952,1761654827,1761654827,3.5,-16869.2,-281.15,393,398,-7,-2,,,
2958,1761654833,1761654833,6,-16863.2,-281.05,393,400,-7,0,,,
3014,1761654889,1761654889,1.5,-16807.2,-280.12,393,401,-7,1,,,
3085,1761654960,1761654960,8.5,-16736.2,-278.94,393,401,-7,1,,,
3121,1761654996,1761654996,2.5,-16700.2,-278.34,393,397,-7,-3,,,
3125,1761655000,1761655000,6.5,-16696.1,-278.27,393,399,-7,-1,,,
3133,1761655008,1761655008,9.5,-16688.1,-278.14,393,401,-7,1,,,
3139,1761655014,1761655014,8,-16682.1,-278.04,393,399,-7,-1,,,
3162,1761655037,1761655037,3,-16659.1,-277.65,393,400,-7,0,,,
3166,1761655041,1761655041,5.5,-16655.1,-277.59,393,400,-7,0,,,
3185,1761655060,1761655060,5.5,-16636.1,-277.27,393,399,-7,-1,,,
3197,1761655072,1761655072,4,-16624.1,-277.07,393,400,-7,0,,,
3202,1761655077,1761655077,8.5,-16619.1,-276.99,393,400,-7,0,,,
3222,1761655097,1761655097,13.5,-16599.1,-276.65,393,400,-7,0,,,
3225,1761655100,1761655100,3.5,-16596.1,-276.6,393,400,-7,0,,,
3238,1761655113,1761655113,7,-16583.1,-276.39,393,399,-7,-1,,,
3246,1761655121,1761655121,12.5,-16575.1,-276.25,393,399,-7,-1,,,
3249,1761655124,1761655124,4,-16572.1,-276.2,393,400,-7,0,,,
3263,1761655138,1761655138,9,-16558.1,-275.97,393,400,-7,0,,,
3266,1761655141,1761655141,6.5,-16555.1,-275.92,393,400,-7,0,,,
3294,1761655169,1761655169,8.5,-16527.1,-275.45,393,400,-7,0,,,
3299,1761655174,1761655174,6.5,-16522.1,-275.37,393,401,-7,1,,,
3311,1761655186,1761655186,4.5,-16510.1,-275.17,393,400,-7,0,,,
3318,1761655193,1761655193,8,-16503.1,-275.05,393,401,-7,1,,,
3333,1761655208,1761655208,6.5,-16488.1,-274.8,393,400,-7,0,,,
3345,1761655220,1761655220,8,-16476.1,-274.6,393,399,-7,-1,,,
3374,1761655249,1761655249,7.5,-16447.1,-274.12,393,399,-7,-1,,,
3391,1761655266,1761655266,5.5,-16430.1,-273.83,393,400,-7,0,,,
3405,1761655280,1761655280,12,-16416,-273.6,393,401,-7,1,,,
3407,1761655282,1761655282,5,-16414,-273.57,393,400,-7,0,,,
3419,1761655294,1761655294,13,-16402,-273.37,393,398,-7,-2,,,
3422,1761655297,1761655297,6,-16399,-273.32,393,399,-7,-1,,,
3439,1761655314,1761655314,8,-16382,-273.03,393,400,-7,0,,,
3474,1761655349,1761655349,8.5,-16347,-272.45,393,400,-7,0,,,
3476,1761655351,1761655351,8,-16345,-272.42,393,400,-7,0,,,
3490,1761655365,1761655365,4.5,-16331,-272.18,393,398,-7,-2,,,
3491,1761655366,1761655366,8,-16330,-272.17,393,400,-7,0,,,
3493,1761655368,1761655368,11,-16328,-272.13,393,397,-7,-3,,,
3495,1761655370,1761655370,11,-16326,-272.1,393,400,-7,0,,,
3511,1761655386,1761655386,6,-16310,-271.83,393,399,-7,-1,,,
3513,1761655388,1761655388,10,-16308,-271.8,393,399,-7,-1,,,
3522,1761655397,1761655397,9.5,-16299,-271.65,393,401,-7,1,,,
3529,1761655404,1761655404,12.5,-16292,-271.53,393,399,-7,-1,,,
3567,1761655442,1761655442,5,-16254,-270.9,393,401,-7,1,,,
3570,1761655445,1761655445,9,-16251,-270.85,393,400,-7,0,,,
3582,1761655457,1761655457,8.5,-16239,-270.65,393,399,-7,-1,,,
3617,1761655492,1761655492,10.5,-16204,-270.07,393,400,-7,0,,,
24,1761651898,1761651898,11,-19798.3,-329.97,392,399,-8,-1,,,
25,1761651899,1761651899,8,-19797.3,-329.96,392,400,-8,0,,,
26,1761651900,1761651900,10.5,-19796.3,-329.94,392,400,-8,0,,,
29,1761651903,1761651903,6,-19793.3,-329.89,392,399,-8,-1,,,
30,1761651904,1761651904,8,-19792.3,-329.87,392,400,-8,0,,,
40,1761651914,1761651914,10,-19782.3,-329.71,392,398,-8,-2,,,
46,1761651920,1761651920,16,-19776.3,-329.6,392,401,-8,1,,,
53,1761651927,1761651927,9,-19769.3,-329.49,392,400,-8,0,,,
57,1761651931,1761651931,6.5,-19765.3,-329.42,392,399,-8,-1,,,
59,1761651933,1761651933,9,-19763.3,-329.39,392,400,-8,0,,,
60,1761651934,1761651934,4.5,-19762.3,-329.37,392,401,-8,1,,,
66,1761651940,1761651940,2.5,-19756.3,-329.27,392,400,-8,0,,,
72,1761651946,1761651946,3.5,-19750.3,-329.17,392,397,-8,-3,,,
73,1761651947,1761651947,7,-19749.3,-329.15,392,399,-8,-1,,,
79,1761651953,1761651953,11.5,-19743.3,-329.05,392,399,-8,-1,,,
84,1761651958,1761651958,4,-19738.3,-328.97,392,399,-8,-1,,,
91,1761651965,1761651965,11.5,-19731.3,-328.85,392,399,-8,-1,,,
97,1761651971,1761651971,9.5,-19725.3,-328.75,392,400,-8,0,,,
98,1761651972,1761651972,4.5,-19724.3,-328.74,392,399,-8,-1,,,
100,1761651974,1761651974,8.5,-19722.3,-328.7,392,399,-8,-1,,,
103,1761651977,1761651977,6.5,-19719.3,-328.65,392,400,-8,0,,,
104,1761651978,1761651978,3,-19718.3,-328.64,392,398,-8,-2,,,
107,1761651981,1761651981,10,-19715.3,-328.59,392,400,-8,0,,,
108,1761651982,1761651982,8,-19714.3,-328.57,392,399,-8,-1,,,
109,1761651983,1761651983,9,-19713.3,-328.55,392,399,-8,-1,,,
111,1761651985,1761651985,11.5,-19711.3,-328.52,392,400,-8,0,,,
113,1761651987,1761651987,11.5,-19709.3,-328.49,392,399,-8,-1,,,
116,1761651990,1761651990,8,-19706.3,-328.44,392,398,-8,-2,,,
117,1761651991,1761651991,9,-19705.3,-328.42,392,399,-8,-1,,,
128,1761652002,1761652002,0,-19694.3,-328.24,392,398,-8,-2,,,
131,1761652005,1761652005,11.5,-19691.3,-328.19,392,400,-8,0,,,
135,1761652009,1761652009,8.5,-19687.3,-328.12,392,399,-8,-1,,,
137,1761652011,1761652011,0.5,-19685.3,-328.09,392,399,-8,-1,,,
140,1761652014,1761652014,9,-19682.3,-328.04,392,401,-8,1,,,
146,1761652020,1761652020,11.5,-19676.3,-327.94,392,399,-8,-1,,,
149,1761652023,1761652023,0,-19673.3,-327.89,392,398,-8,-2,,,
151,1761652025,1761652025,3.5,-19671.3,-327.85,392,400,-8,0,,,
156,1761652030,1761652030,8.5,-19666.3,-327.77,392,399,-8,-1,,,
168,1761652042,1761652042,5.5,-19654.3,-327.57,392,400,-8,0,,,
171,1761652045,1761652045,2,-19651.3,-327.52,392,400,-8,0,,,
172,1761652046,1761652046,3,-19650.2,-327.5,392,398,-8,-2,,,
180,1761652054,1761652054,5,-19642.2,-327.37,392,401,-8,1,,,
189,1761652063,1761652063,1,-19633.2,-327.22,392,398,-8,-2,,,
200,1761652074,1761652074,11,-19622.2,-327.04,392,400,-8,0,,,
210,1761652084,1761652084,11.5,-19612.2,-326.87,392,400,-8,0,,,
212,1761652086,1761652086,8.5,-19610.2,-326.84,392,400,-8,0,,,
216,1761652090,1761652090,10,-19606.2,-326.77,392,401,-8,1,,,
218,1761652092,1761652092,7.5,-19604.2,-326.74,392,399,-8,-1,,,
220,1761652094,1761652094,7.5,-19602.2,-326.7,392,400,-8,0,,,
221,1761652095,1761652095,4,-19601.2,-326.69,392,401,-8,1,,,
223,1761652097,1761652097,4,-19599.2,-326.65,392,399,-8,-1,,,
227,1761652101,1761652101,1,-19595.2,-326.59,392,399,-8,-1,,,
241,1761652115,1761652115,7,-19581.2,-326.35,392,400,-8,0,,,
243,1761652117,1761652117,4.5,-19579.2,-326.32,392,400,-8,0,,,
248,1761652122,1761652122,13.5,-19574.2,-326.24,392,400,-8,0,,,
250,1761652124,1761652124,6,-19572.2,-326.2,392,401,-8,1,,,
251,1761652125,1761652125,8,-19571.2,-326.19,392,400,-8,0,,,
252,1761652126,1761652126,0.5,-19570.2,-326.17,392,399,-8,-1,,,
254,1761652128,1761652128,7.5,-19568.2,-326.14,392,400,-8,0,,,
258,1761652132,1761652132,3,-19564.2,-326.07,392,399,-8,-1,,,
259,1761652133,1761652133,9,-19563.2,-326.05,392,401,-8,1,,,
266,1761652140,1761652140,3,-19556.2,-325.94,392,399,-8,-1,,,
269,1761652143,1761652143,8,-19553.2,-325.89,392,401,-8,1,,,
279,1761652153,1761652153,11,-19543.2,-325.72,392,401,-8,1,,,
281,1761652155,1761652155,10,-19541.2,-325.69,392,399,-8,-1,,,
306,1761652180,1761652180,11,-19516.2,-325.27,392,400,-8,0,,,
309,1761652183,1761652183,12,-19513.2,-325.22,392,400,-8,0,,,
312,1761652186,1761652186,5.5,-19510.2,-325.17,392,400,-8,0,,,
317,1761652191,1761652191,5.5,-19505.2,-325.09,392,398,-8,-2,,,
319,1761652193,1761652193,10,-19503.2,-325.05,392,400,-8,0,,,
321,1761652195,1761652195,12,-19501.2,-325.02,392,400,-8,0,,,
323,1761652197,1761652197,10,-19499.2,-324.99,392,399,-8,-1,,,
327,1761652201,1761652201,8.5,-19495.2,-324.92,392,400,-8,0,,,
329,1761652203,1761652203,11,-19493.2,-324.89,392,400,-8,0,,,
333,1761652207,1761652207,10.5,-19489.2,-324.82,392,400,-8,0,,,
340,1761652214,1761652214,3.5,-19482.2,-324.7,392,398,-8,-2,,,
350,1761652224,1761652224,5.5,-19472.2,-324.54,392,400,-8,0,,,
357,1761652231,1761652231,1,-19465.2,-324.42,392,400,-8,0,,,
361,1761652235,1761652235,6,-19461.2,-324.35,392,400,-8,0,,,
371,1761652245,1761652245,5.5,-19451.2,-324.19,392,399,-8,-1,,,
375,1761652249,1761652249,0.5,-19447.2,-324.12,392,399,-8,-1,,,
377,1761652251,1761652251,6.5,-19445.2,-324.09,392,401,-8,1,,,
393,1761652267,1761652267,9,-19429.2,-323.82,392,400,-8,0,,,
407,1761652281,1761652281,5.5,-19415.2,-323.59,392,399,-8,-1,,,
409,1761652283,1761652283,9,-19413.2,-323.55,392,399,-8,-1,,,
411,1761652285,1761652285,7,-19411.2,-323.52,392,400,-8,0,,,
414,1761652288,1761652288,2,-19408.2,-323.47,392,399,-8,-1,,,
420,1761652294,1761652294,4,-19402.2,-323.37,392,400,-8,0,,,
421,1761652295,1761652295,7,-19401.2,-323.35,392,399,-8,-1,,,
422,1761652296,1761652296,3.5,-19400.2,-323.34,392,401,-8,1,,,
428,1761652302,1761652302,4.5,-19394.2,-323.24,392,398,-8,-2,,,
429,1761652303,1761652303,10,-19393.2,-323.22,392,401,-8,1,,,
431,1761652305,1761652305,7.5,-19391.2,-323.19,392,400,-8,0,,,
432,1761652306,1761652306,3.5,-19390.2,-323.17,392,399,-8,-1,,,
434,1761652308,1761652308,8.5,-19388.2,-323.14,392,396,-8,-4,,,
442,1761652316,1761652316,7.5,-19380.1,-323,392,401,-8,1,,,
451,1761652325,1761652325,10,-19371.1,-322.85,392,399,-8,-1,,,
462,1761652336,1761652336,8,-19360.1,-322.67,392,399,-8,-1,,,
473,1761652347,1761652347,7.5,-19349.1,-322.49,392,399,-8,-1,,,
477,1761652351,1761652351,9,-19345.1,-322.42,392,400,-8,0,,,
479,1761652353,1761652353,12.5,-19343.1,-322.39,392,401,-8,1,,,
495,1761652369,1761652369,12.5,-19327.1,-322.12,392,401,-8,1,,,
496,1761652370,1761652370,5,-19326.1,-322.1,392,398,-8,-2,,,
497,1761652371,1761652371,7.5,-19325.1,-322.09,392,399,-8,-1,,,
501,1761652375,1761652375,13,-19321.1,-322.02,392,401,-8,1,,,
504,1761652378,1761652378,7,-19318.1,-321.97,392,399,-8,-1,,,
507,1761652381,1761652381,9.5,-19315.1,-321.92,392,399,-8,-1,,,
509,1761652383,1761652383,11,-19313.1,-321.89,392,398,-8,-2,,,
512,1761652386,1761652386,6.5,-19310.1,-321.84,392,400,-8,0,,,
529,1761652403,1761652403,4,-19293.1,-321.55,392,399,-8,-1,,,
530,1761652404,1761652404,3.5,-19292.1,-321.54,392,400,-8,0,,,
531,1761652405,1761652405,3,-19291.1,-321.52,392,400,-8,0,,,
540,1761652414,1761652414,5.5,-19282.1,-321.37,392,399,-8,-1,,,
545,1761652419,1761652419,6.5,-19277.1,-321.29,392,400,-8,0,,,
555,1761652429,1761652429,2,-19267.1,-321.12,392,399,-8,-1,,,
557,1761652431,1761652431,0.5,-19265.1,-321.09,392,399,-8,-1,,,
559,1761652433,1761652433,3,-19263.1,-321.05,392,400,-8,0,,,
565,1761652439,1761652439,5,-19257.1,-320.95,392,399,-8,-1,,,
573,1761652447,1761652447,7.5,-19249.1,-320.82,392,401,-8,1,,,
581,1761652455,1761652455,4,-19241.1,-320.68,392,400,-8,0,,,
586,1761652460,1761652460,7,-19236.1,-320.6,392,400,-8,0,,,
589,1761652463,1761652463,11.5,-19233.1,-320.55,392,401,-8,1,,,
590,1761652464,1761652464,8,-19232.1,-320.53,392,400,-8,0,,,
597,1761652471,1761652471,9.5,-19225.1,-320.42,392,399,-8,-1,,,
598,1761652472,1761652472,5.5,-19224.1,-320.4,392,400,-8,0,,,
599,1761652473,1761652473,10,-19223.1,-320.38,392,399,-8,-1,,,
600,1761652474,1761652474,6,-19222.1,-320.37,392,397,-8,-3,,,
607,1761652481,1761652481,10,-19215.1,-320.25,392,401,-8,1,,,
632,1761652506,1761652506,9.5,-19190.1,-319.83,392,400,-8,0,,,
658,1761652532,1761652532,5.5,-19164.1,-319.4,392,399,-8,-1,,,
662,1761652536,1761652536,8.5,-19160.1,-319.33,392,399,-8,-1,,,
664,1761652538,1761652538,8.5,-19158.1,-319.3,392,399,-8,-1,,,
665,1761652539,1761652539,3.5,-19157.1,-319.28,392,398,-8,-2,,,
669,1761652543,1761652543,5,-19153.1,-319.22,392,399,-8,-1,,,
674,1761652548,1761652548,8,-19148.1,-319.13,392,397,-8,-3,,,
683,1761652557,1761652557,5,-19139.1,-318.98,392,399,-8,-1,,,
692,1761652566,1761652566,13,-19130,-318.83,392,400,-8,0,,,
698,1761652572,1761652572,14,-19124,-318.73,392,399,-8,-1,,,
701,1761652575,1761652575,7,-19121,-318.68,392,400,-8,0,,,
704,1761652578,1761652578,1.5,-19118.1,-318.63,392,399,-8,-1,,,
705,1761652579,1761652579,5.5,-19117.1,-318.62,392,400,-8,0,,,
707,1761652581,1761652581,9.5,-19115,-318.58,392,399,-8,-1,,,
725,1761652599,1761652599,7,-19097,-318.28,392,400,-8,0,,,
726,1761652600,1761652600,7,-19096,-318.27,392,399,-8,-1,,,
729,1761652603,1761652603,8,-19093,-318.22,392,398,-8,-2,,,
738,1761652612,1761652612,11.5,-19084,-318.07,392,400,-8,0,,,
751,1761652625,1761652625,8,-19071,-317.85,392,397,-8,-3,,,
755,1761652629,1761652629,4.5,-19067,-317.78,392,400,-8,0,,,
764,1761652638,1761652638,9.5,-19058,-317.63,392,399,-8,-1,,,
765,1761652639,1761652639,5,-19057,-317.62,392,399,-8,-1,,,
789,1761652663,1761652663,7,-19033,-317.22,392,399,-8,-1,,,
795,1761652669,1761652669,5.5,-19027,-317.12,392,398,-8,-2,,,
802,1761652676,1761652676,4.5,-19020,-317,392,399,-8,-1,,,
803,1761652677,1761652677,11,-19019,-316.98,392,400,-8,0,,,
808,1761652682,1761652682,5.5,-19014,-316.9,392,400,-8,0,,,
811,1761652685,1761652685,9.5,-19011,-316.85,392,399,-8,-1,,,
831,1761652705,1761652705,15,-18991,-316.52,392,399,-8,-1,,,
832,1761652706,1761652706,4,-18990,-316.5,392,399,-8,-1,,,
834,1761652708,1761652708,4.5,-18988,-316.47,392,399,-8,-1,,,
843,1761652717,1761652717,10.5,-18979,-316.32,392,400,-8,0,,,
862,1761652736,1761652736,5.5,-18960,-316,392,400,-8,0,,,
864,1761652738,1761652738,10.5,-18958,-315.97,392,400,-8,0,,,
870,1761652744,1761652744,8,-18952,-315.87,392,400,-8,0,,,
871,1761652745,1761652745,2,-18951,-315.85,392,400,-8,0,,,
876,1761652750,1761652750,7.5,-18946,-315.77,392,400,-8,0,,,
878,1761652752,1761652752,7.5,-18944,-315.73,392,399,-8,-1,,,
879,1761652753,1761652753,5.5,-18943,-315.72,392,400,-8,0,,,
883,1761652757,1761652757,0.5,-18939,-315.65,392,397,-8,-3,,,
885,1761652759,1761652759,4.5,-18937,-315.62,392,399,-8,-1,,,
886,1761652760,1761652760,8.5,-18936,-315.6,392,400,-8,0,,,
888,1761652762,1761652762,10,-18934,-315.57,392,401,-8,1,,,
896,1761652770,1761652770,10,-18926,-315.43,392,398,-8,-2,,,
899,1761652773,1761652773,4,-18923,-315.38,392,400,-8,0,,,
902,1761652776,1761652776,10.5,-18920,-315.33,392,399,-8,-1,,,
903,1761652777,1761652777,10.5,-18919,-315.32,392,400,-8,0,,,
904,1761652778,1761652778,10,-18918,-315.3,392,400,-8,0,,,
905,1761652779,1761652779,3,-18917,-315.28,392,399,-8,-1,,,
908,1761652782,1761652782,8.5,-18914,-315.23,392,400,-8,0,,,
918,1761652792,1761652792,10,-18904,-315.07,392,401,-8,1,,,
946,1761652820,1761652820,8,-18876,-314.6,392,398,-8,-2,,,
953,1761652827,1761652827,5.5,-18869,-314.48,392,399,-8,-1,,,
955,1761652829,1761652829,6,-18866.9,-314.45,392,399,-8,-1,,,
965,1761652839,1761652839,8.5,-18856.9,-314.28,392,400,-8,0,,,
966,1761652840,1761652840,12,-18855.9,-314.27,392,399,-8,-1,,,
968,1761652842,1761652842,10.5,-18853.9,-314.23,392,399,-8,-1,,,
970,1761652844,1761652844,15.5,-18851.9,-314.2,392,400,-8,0,,,
971,1761652845,1761652845,5.5,-18850.9,-314.18,392,399,-8,-1,,,
982,1761652856,1761652856,4,-18839.9,-314,392,399,-8,-1,,,
987,1761652861,1761652861,8,-18834.9,-313.92,392,401,-8,1,,,
988,1761652862,1761652862,1.5,-18833.9,-313.9,392,399,-8,-1,,,
989,1761652863,1761652863,3,-18832.9,-313.88,392,399,-8,-1,,,
990,1761652864,1761652864,2.5,-18831.9,-313.87,392,399,-8,-1,,,
991,1761652865,1761652865,9,-18830.9,-313.85,392,399,-8,-1,,,
1001,1761652875,1761652875,8,-18820.9,-313.68,392,398,-8,-2,,,
1002,1761652876,1761652876,4,-18819.9,-313.67,392,398,-8,-2,,,
1003,1761652877,1761652877,7,-18818.9,-313.65,392,400,-8,0,,,
1008,1761652882,1761652882,5.5,-18813.9,-313.57,392,401,-8,1,,,
1011,1761652885,1761652885,8,-18810.9,-313.52,392,398,-8,-2,,,
1016,1761652890,1761652890,3,-18805.9,-313.43,392,398,-8,-2,,,
1031,1761652905,1761652905,11,-18790.9,-313.18,392,400,-8,0,,,
1037,1761652911,1761652911,8,-18784.9,-313.08,392,400,-8,0,,,
1039,1761652913,1761652913,9,-18782.9,-313.05,392,400,-8,0,,,
1042,1761652916,1761652916,3.5,-18779.9,-313,392,399,-8,-1,,,
1043,1761652917,1761652917,13.5,-18778.9,-312.98,392,400,-8,0,,,
1047,1761652921,1761652921,10.5,-18774.9,-312.92,392,400,-8,0,,,
1050,1761652924,1761652924,2,-18771.9,-312.87,392,399,-8,-1,,,
1053,1761652927,1761652927,12,-18768.9,-312.82,392,401,-8,1,,,
1071,1761652945,1761652945,7,-18750.9,-312.52,392,400,-8,0,,,
1073,1761652947,1761652947,8,-18748.9,-312.48,392,400,-8,0,,,
1082,1761652956,1761652956,10.5,-18739.9,-312.33,392,399,-8,-1,,,
1085,1761652959,1761652959,7,-18736.9,-312.28,392,398,-8,-2,,,
1091,1761652965,1761652965,6.5,-18730.9,-312.18,392,398,-8,-2,,,
1095,1761652969,1761652969,8,-18726.9,-312.11,392,400,-8,0,,,
1096,1761652970,1761652970,0.5,-18725.9,-312.1,392,398,-8,-2,,,
1097,1761652971,1761652971,5,-18724.9,-312.08,392,400,-8,0,,,
1104,1761652978,1761652978,12.5,-18717.9,-311.96,392,400,-8,0,,,
1111,1761652985,1761652985,2.5,-18710.9,-311.85,392,399,-8,-1,,,
1114,1761652988,1761652988,12,-18707.9,-311.8,392,401,-8,1,,,
1120,1761652994,1761652994,13.5,-18701.9,-311.7,392,400,-8,0,,,
1121,1761652995,1761652995,7.5,-18700.9,-311.68,392,398,-8,-2,,,
1126,1761653000,1761653000,10.5,-18695.9,-311.6,392,398,-8,-2,,,
1128,1761653002,1761653002,14.5,-18693.9,-311.56,392,401,-8,1,,,
1141,1761653015,1761653015,3.5,-18680.9,-311.35,392,400,-8,0,,,
1144,1761653018,1761653018,10.5,-18677.9,-311.3,392,400,-8,0,,,
1148,1761653022,1761653022,12,-18673.9,-311.23,392,399,-8,-1,,,
1152,1761653026,1761653026,8.5,-18669.9,-311.16,392,399,-8,-1,,,
1163,1761653037,1761653037,5.5,-18658.9,-310.98,392,399,-8,-1,,,
1181,1761653055,1761653055,4,-18640.9,-310.68,392,399,-8,-1,,,
1186,1761653060,1761653060,7,-18635.9,-310.6,392,400,-8,0,,,
1189,1761653063,1761653063,5,-18632.9,-310.55,392,398,-8,-2,,,
1192,1761653066,1761653066,10,-18629.9,-310.5,392,400,-8,0,,,
1196,1761653070,1761653070,9.5,-18625.9,-310.43,392,401,-8,1,,,
1197,1761653071,1761653071,2,-18624.9,-310.41,392,399,-8,-1,,,
1205,1761653079,1761653079,6.5,-18616.9,-310.28,392,399,-8,-1,,,
1208,1761653082,1761653082,7.5,-18613.9,-310.23,392,400,-8,0,,,
1209,1761653083,1761653083,2.5,-18612.9,-310.21,392,400,-8,0,,,
1216,1761653090,1761653090,8,-18605.9,-310.1,392,400,-8,0,,,
1217,1761653091,1761653091,7,-18604.9,-310.08,392,400,-8,0,,,
1226,1761653100,1761653100,9.5,-18595.8,-309.93,392,399,-8,-1,,,
1228,1761653102,1761653102,10,-18593.8,-309.9,392,400,-8,0,,,
1231,1761653105,1761653105,6,-18590.9,-309.85,392,400,-8,0,,,
1261,1761653135,1761653135,5,-18560.8,-309.35,392,398,-8,-2,,,
1263,1761653137,1761653137,4.5,-18558.8,-309.31,392,400,-8,0,,,
1265,1761653139,1761653139,5,-18556.8,-309.28,392,399,-8,-1,,,
1266,1761653140,1761653140,11,-18555.8,-309.26,392,399,-8,-1,,,
1272,1761653146,1761653146,5.5,-18549.8,-309.16,392,400,-8,0,,,
1273,1761653147,1761653147,14,-18548.8,-309.15,392,401,-8,1,,,
1274,1761653148,1761653148,5.5,-18547.8,-309.13,392,400,-8,0,,,
1281,1761653155,1761653155,7,-18540.8,-309.01,392,401,-8,1,,,
1299,1761653173,1761653173,3,-18522.8,-308.71,392,399,-8,-1,,,
1303,1761653177,1761653177,4.5,-18518.8,-308.65,392,399,-8,-1,,,
1305,1761653179,1761653179,7,-18516.8,-308.61,392,400,-8,0,,,
1306,1761653180,1761653180,9,-18515.8,-308.6,392,399,-8,-1,,,
1316,1761653190,1761653190,10,-18505.8,-308.43,392,399,-8,-1,,,
1318,1761653192,1761653192,10.5,-18503.8,-308.4,392,400,-8,0,,,
1329,1761653203,1761653203,7.5,-18492.8,-308.21,392,399,-8,-1,,,
1332,1761653206,1761653206,9,-18489.8,-308.16,392,399,-8,-1,,,
1338,1761653212,1761653212,10,-18483.8,-308.06,392,399,-8,-1,,,
1340,1761653214,1761653214,10.5,-18481.8,-308.03,392,399,-8,-1,,,
1343,1761653217,1761653217,3.5,-18478.8,-307.98,392,399,-8,-1,,,
1344,1761653218,1761653218,5.5,-18477.8,-307.96,392,399,-8,-1,,,
1352,1761653226,1761653226,1,-18469.8,-307.83,392,399,-8,-1,,,
1358,1761653232,1761653232,5.5,-18463.8,-307.73,392,399,-8,-1,,,
1361,1761653235,1761653235,6,-18460.8,-307.68,392,399,-8,-1,,,
1364,1761653238,1761653238,7,-18457.8,-307.63,392,399,-8,-1,,,
1369,1761653243,1761653243,7.5,-18452.8,-307.55,392,399,-8,-1,,,
1373,1761653247,1761653247,2.5,-18448.8,-307.48,392,398,-8,-2,,,
1376,1761653250,1761653250,12.5,-18445.8,-307.43,392,400,-8,0,,,
1379,1761653253,1761653253,9.5,-18442.8,-307.38,392,398,-8,-2,,,
1380,1761653254,1761653254,15.5,-18441.8,-307.36,392,400,-8,0,,,
1392,1761653266,1761653266,2,-18429.8,-307.16,392,399,-8,-1,,,
1398,1761653272,1761653272,5.5,-18423.8,-307.06,392,400,-8,0,,,
1399,1761653273,1761653273,10.5,-18422.8,-307.05,392,400,-8,0,,,
1400,1761653274,1761653274,5,-18421.8,-307.03,392,401,-8,1,,,
1401,1761653275,1761653275,6,-18420.8,-307.01,392,400,-8,0,,,
1423,1761653297,1761653297,11.5,-18398.8,-306.65,392,400,-8,0,,,
1424,1761653298,1761653298,4.5,-18397.8,-306.63,392,397,-8,-3,,,
1428,1761653302,1761653302,5,-18393.8,-306.56,392,399,-8,-1,,,
1432,1761653306,1761653306,5.5,-18389.8,-306.5,392,398,-8,-2,,,
1441,1761653315,1761653315,12.5,-18380.8,-306.35,392,400,-8,0,,,
1443,1761653317,1761653317,14,-18378.8,-306.31,392,399,-8,-1,,,
1444,1761653318,1761653318,2.5,-18377.8,-306.3,392,399,-8,-1,,,
1454,1761653328,1761653328,10.5,-18367.8,-306.13,392,400,-8,0,,,
1460,1761653334,1761653334,13,-18361.8,-306.03,392,401,-8,1,,,
1465,1761653339,1761653339,2.5,-18356.8,-305.95,392,399,-8,-1,,,
1476,1761653350,1761653350,10,-18345.8,-305.76,392,401,-8,1,,,
1478,1761653352,1761653352,10,-18343.8,-305.73,392,400,-8,0,,,
1497,1761653371,1761653371,8.5,-18324.7,-305.41,392,400,-8,0,,,
1502,1761653376,1761653376,2,-18319.8,-305.33,392,399,-8,-1,,,
1509,1761653383,1761653383,5,-18312.7,-305.21,392,399,-8,-1,,,
1511,1761653385,1761653385,9,-18310.7,-305.18,392,401,-8,1,,,
1521,1761653395,1761653395,7.5,-18300.7,-305.01,392,398,-8,-2,,,
1524,1761653398,1761653398,4,-18297.7,-304.96,392,399,-8,-1,,,
1525,1761653399,1761653399,8.5,-18296.7,-304.95,392,400,-8,0,,,
1527,1761653401,1761653401,9,-18294.7,-304.91,392,400,-8,0,,,
1534,1761653408,1761653408,5,-18287.7,-304.8,392,399,-8,-1,,,
1541,1761653415,1761653415,10,-18280.7,-304.68,392,400,-8,0,,,
1543,1761653417,1761653417,13.5,-18278.7,-304.65,392,400,-8,0,,,
1547,1761653421,1761653421,10.5,-18274.7,-304.58,392,399,-8,-1,,,
1550,1761653424,1761653424,2,-18271.7,-304.53,392,400,-8,0,,,
1561,1761653435,1761653435,9.5,-18260.7,-304.35,392,399,-8,-1,,,
1568,1761653442,1761653442,9.5,-18253.7,-304.23,392,400,-8,0,,,
1573,1761653447,1761653447,7.5,-18248.7,-304.15,392,398,-8,-2,,,
1574,1761653448,1761653448,4.5,-18247.7,-304.13,392,400,-8,0,,,
1575,1761653449,1761653449,8,-18246.7,-304.11,392,400,-8,0,,,
1578,1761653452,1761653452,3,-18243.7,-304.06,392,398,-8,-2,,,
1580,1761653454,1761653454,2,-18241.7,-304.03,392,399,-8,-1,,,
1585,1761653459,1761653459,6,-18236.7,-303.95,392,400,-8,0,,,
1592,1761653466,1761653466,1.5,-18229.7,-303.83,392,399,-8,-1,,,
1597,1761653471,1761653471,9,-18224.7,-303.75,392,401,-8,1,,,
1598,1761653472,1761653472,5,-18223.7,-303.73,392,400,-8,0,,,
1599,1761653473,1761653473,4.5,-18222.7,-303.71,392,400,-8,0,,,
1608,1761653482,1761653482,5.5,-18213.7,-303.56,392,400,-8,0,,,
1610,1761653484,1761653484,4,-18211.7,-303.53,392,399,-8,-1,,,
1613,1761653487,1761653487,11.5,-18208.7,-303.48,392,399,-8,-1,,,
1615,1761653489,1761653489,9.5,-18206.7,-303.45,392,400,-8,0,,,
1623,1761653497,1761653497,8,-18198.7,-303.31,392,400,-8,0,,,
1627,1761653501,1761653501,12.5,-18194.7,-303.24,392,400,-8,0,,,
1638,1761653512,1761653512,3,-18183.7,-303.06,392,401,-8,1,,,
1645,1761653519,1761653519,13.5,-18176.7,-302.94,392,398,-8,-2,,,
1647,1761653521,1761653521,15,-18174.7,-302.91,392,400,-8,0,,,
1648,1761653522,1761653522,9,-18173.7,-302.89,392,400,-8,0,,,
1655,1761653529,1761653529,2.5,-18166.7,-302.78,392,399,-8,-1,,,
1659,1761653533,1761653533,4,-18162.7,-302.71,392,400,-8,0,,,
1664,1761653538,1761653538,7.5,-18157.7,-302.63,392,399,-8,-1,,,
1669,1761653543,1761653543,5.5,-18152.7,-302.54,392,399,-8,-1,,,
1674,1761653549,1761653548,10.5,-18147.7,-302.46,392,400,-8,0,,,
1686,1761653561,1761653560,10.5,-18135.7,-302.26,392,400,-8,0,,,
1691,1761653566,1761653566,4.5,-18130.7,-302.18,392,399,-8,-1,,,
1693,1761653568,1761653568,3,-18128.7,-302.14,392,399,-8,-1,,,
1697,1761653572,1761653572,5.5,-18124.7,-302.08,392,400,-8,0,,,
1699,1761653574,1761653574,2.5,-18122.7,-302.04,392,399,-8,-1,,,
1700,1761653575,1761653575,8.5,-18121.7,-302.03,392,399,-8,-1,,,
1703,1761653578,1761653578,3,-18118.7,-301.98,392,400,-8,0,,,
1705,1761653580,1761653580,3.5,-18116.7,-301.94,392,400,-8,0,,,
1708,1761653583,1761653583,8,-18113.7,-301.89,392,400,-8,0,,,
1711,1761653586,1761653586,5.5,-18110.7,-301.84,392,401,-8,1,,,
1729,1761653604,1761653604,6,-18092.7,-301.54,392,400,-8,0,,,
1734,1761653609,1761653609,7.5,-18087.7,-301.46,392,399,-8,-1,,,
1745,1761653620,1761653620,5,-18076.7,-301.28,392,399,-8,-1,,,
1761,1761653636,1761653636,5.5,-18060.6,-301.01,392,399,-8,-1,,,
1768,1761653643,1761653643,6.5,-18053.6,-300.89,392,400,-8,0,,,
1770,1761653645,1761653645,6.5,-18051.6,-300.86,392,400,-8,0,,,
1774,1761653649,1761653649,11.5,-18047.6,-300.79,392,399,-8,-1,,,
1780,1761653655,1761653655,11.5,-18041.6,-300.69,392,400,-8,0,,,
1790,1761653665,1761653665,13,-18031.6,-300.53,392,397,-8,-3,,,
1791,1761653666,1761653666,4.5,-18030.6,-300.51,392,398,-8,-2,,,
1803,1761653678,1761653678,9.5,-18018.6,-300.31,392,399,-8,-1,,,
1807,1761653682,1761653682,9,-18014.6,-300.24,392,400,-8,0,,,
1820,1761653695,1761653695,8,-18001.6,-300.03,392,400,-8,0,,,
1824,1761653699,1761653699,8.5,-17997.6,-299.96,392,400,-8,0,,,
1826,1761653701,1761653701,9.5,-17995.6,-299.93,392,400,-8,0,,,
1838,1761653713,1761653713,9.5,-17983.6,-299.73,392,400,-8,0,,,
1856,1761653731,1761653731,10.5,-17965.6,-299.43,392,400,-8,0,,,
1858,1761653733,1761653733,10,-17963.6,-299.39,392,399,-8,-1,,,
1866,1761653741,1761653741,12.5,-17955.6,-299.26,392,399,-8,-1,,,
1869,1761653744,1761653744,3,-17952.6,-299.21,392,399,-8,-1,,,
1872,1761653747,1761653747,6.5,-17949.6,-299.16,392,400,-8,0,,,
1873,1761653748,1761653748,4,-17948.6,-299.14,392,398,-8,-2,,,
1886,1761653761,1761653761,9,-17935.6,-298.93,392,399,-8,-1,,,
1913,1761653788,1761653788,6.5,-17908.6,-298.48,392,399,-8,-1,,,
1914,1761653789,1761653789,11,-17907.6,-298.46,392,401,-8,1,,,
1917,1761653792,1761653792,7.5,-17904.6,-298.41,392,399,-8,-1,,,
1918,1761653793,1761653793,12,-17903.6,-298.39,392,401,-8,1,,,
1930,1761653805,1761653805,4,-17891.6,-298.19,392,399,-8,-1,,,
1931,1761653806,1761653806,7.5,-17890.6,-298.18,392,399,-8,-1,,,
1935,1761653810,1761653810,9,-17886.6,-298.11,392,398,-8,-2,,,
1946,1761653821,1761653821,2.5,-17875.6,-297.93,392,399,-8,-1,,,
1947,1761653822,1761653822,8.5,-17874.6,-297.91,392,398,-8,-2,,,
1950,1761653825,1761653825,2.5,-17871.6,-297.86,392,399,-8,-1,,,
1953,1761653828,1761653828,11,-17868.6,-297.81,392,401,-8,1,,,
1956,1761653831,1761653831,5.5,-17865.6,-297.76,392,398,-8,-2,,,
1958,1761653833,1761653833,6.5,-17863.6,-297.73,392,400,-8,0,,,
1969,1761653844,1761653844,9.5,-17852.6,-297.54,392,400,-8,0,,,
1971,1761653846,1761653846,8.5,-17850.6,-297.51,392,400,-8,0,,,
1972,1761653847,1761653847,7,-17849.6,-297.49,392,401,-8,1,,,
1977,1761653852,1761653852,7,-17844.6,-297.41,392,400,-8,0,,,
1979,1761653854,1761653854,13,-17842.6,-297.38,392,400,-8,0,,,
1981,1761653856,1761653856,8,-17840.6,-297.34,392,400,-8,0,,,
1985,1761653860,1761653860,12.5,-17836.6,-297.28,392,399,-8,-1,,,
1991,1761653866,1761653866,13.5,-17830.6,-297.18,392,401,-8,1,,,
1993,1761653868,1761653868,9.5,-17828.6,-297.14,392,399,-8,-1,,,
2006,1761653881,1761653881,6,-17815.6,-296.93,392,400,-8,0,,,
2023,1761653898,1761653898,4,-17798.6,-296.64,392,400,-8,0,,,
2028,1761653903,1761653903,6,-17793.5,-296.56,392,399,-8,-1,,,
2030,1761653905,1761653905,8.5,-17791.5,-296.53,392,399,-8,-1,,,
2031,1761653906,1761653906,1,-17790.5,-296.51,392,399,-8,-1,,,
2038,1761653913,1761653913,12,-17783.5,-296.39,392,399,-8,-1,,,
2044,1761653919,1761653919,9,-17777.5,-296.29,392,399,-8,-1,,,
2045,1761653920,1761653920,4.5,-17776.5,-296.28,392,399,-8,-1,,,
2051,1761653926,1761653926,8,-17770.5,-296.18,392,399,-8,-1,,,
2052,1761653927,1761653927,9.5,-17769.5,-296.16,392,400,-8,0,,,
2057,1761653932,1761653932,3.5,-17764.5,-296.08,392,399,-8,-1,,,
2060,1761653935,1761653935,7.5,-17761.5,-296.03,392,399,-8,-1,,,
2061,1761653936,1761653936,7,-17760.5,-296.01,392,399,-8,-1,,,
2062,1761653937,1761653937,12.5,-17759.5,-295.99,392,400,-8,0,,,
2068,1761653943,1761653943,13.5,-17753.5,-295.89,392,399,-8,-1,,,
2083,1761653958,1761653958,8.5,-17738.5,-295.64,392,400,-8,0,,,
2085,1761653960,1761653960,7,-17736.5,-295.61,392,400,-8,0,,,
2087,1761653962,1761653962,7,-17734.5,-295.58,392,399,-8,-1,,,
2093,1761653968,1761653968,10.5,-17728.5,-295.48,392,401,-8,1,,,
2099,1761653974,1761653974,7,-17722.5,-295.38,392,400,-8,0,,,
2101,1761653976,1761653976,11.5,-17720.5,-295.34,392,399,-8,-1,,,
2102,1761653977,1761653977,3.5,-17719.5,-295.33,392,399,-8,-1,,,
2103,1761653978,1761653978,10.5,-17718.5,-295.31,392,400,-8,0,,,
2106,1761653981,1761653981,3,-17715.5,-295.26,392,399,-8,-1,,,
2108,1761653983,1761653983,4,-17713.5,-295.23,392,399,-8,-1,,,
2114,1761653989,1761653989,2,-17707.5,-295.13,392,399,-8,-1,,,
2119,1761653994,1761653994,11,-17702.5,-295.04,392,400,-8,0,,,
2120,1761653995,1761653995,6.5,-17701.5,-295.03,392,400,-8,0,,,
2121,1761653996,1761653996,11,-17700.5,-295.01,392,400,-8,0,,,
2123,1761653998,1761653998,8.5,-17698.5,-294.98,392,399,-8,-1,,,
2125,1761654000,1761654000,9.5,-17696.5,-294.94,392,399,-8,-1,,,
2133,1761654008,1761654008,11.5,-17688.5,-294.81,392,399,-8,-1,,,
2136,1761654011,1761654011,6.5,-17685.5,-294.76,392,400,-8,0,,,
2137,1761654012,1761654012,14,-17684.5,-294.74,392,399,-8,-1,,,
2138,1761654013,1761654013,5.5,-17683.5,-294.73,392,399,-8,-1,,,
2142,1761654017,1761654017,6,-17679.5,-294.66,392,399,-8,-1,,,
2144,1761654019,1761654019,5,-17677.5,-294.63,392,400,-8,0,,,
2145,1761654020,1761654020,13,-17676.5,-294.61,392,400,-8,0,,,
2150,1761654025,1761654025,4.5,-17671.5,-294.53,392,398,-8,-2,,,
2153,1761654028,1761654028,11.5,-17668.5,-294.47,392,400,-8,0,,,
2155,1761654030,1761654030,11.5,-17666.5,-294.44,392,399,-8,-1,,,
2159,1761654034,1761654034,2.5,-17662.5,-294.38,392,399,-8,-1,,,
2166,1761654041,1761654041,7.5,-17655.5,-294.26,392,399,-8,-1,,,
2174,1761654049,1761654049,7,-17647.5,-294.12,392,400,-8,0,,,
2175,1761654050,1761654050,2.5,-17646.5,-294.11,392,398,-8,-2,,,
2176,1761654051,1761654051,8.5,-17645.5,-294.09,392,397,-8,-3,,,
2184,1761654059,1761654059,3,-17637.5,-293.96,392,399,-8,-1,,,
2185,1761654060,1761654060,12.5,-17636.5,-293.94,392,400,-8,0,,,
2188,1761654063,1761654063,4,-17633.5,-293.89,392,399,-8,-1,,,
2191,1761654066,1761654066,11.5,-17630.5,-293.84,392,399,-8,-1,,,
2193,1761654068,1761654068,8,-17628.5,-293.81,392,400,-8,0,,,
2202,1761654077,1761654077,7,-17619.5,-293.66,392,400,-8,0,,,
2209,1761654084,1761654084,3.5,-17612.5,-293.54,392,399,-8,-1,,,
2213,1761654088,1761654088,4,-17608.5,-293.47,392,400,-8,0,,,
2215,1761654090,1761654090,1,-17606.5,-293.44,392,400,-8,0,,,
2216,1761654091,1761654091,9,-17605.5,-293.42,392,399,-8,-1,,,
2220,1761654095,1761654095,10,-17601.5,-293.36,392,399,-8,-1,,,
2222,1761654097,1761654097,8.5,-17599.5,-293.32,392,400,-8,0,,,
2224,1761654099,1761654099,8.5,-17597.5,-293.29,392,399,-8,-1,,,
2228,1761654103,1761654103,8.5,-17593.5,-293.22,392,400,-8,0,,,
2229,1761654104,1761654104,4.5,-17592.5,-293.21,392,399,-8,-1,,,
2230,1761654105,1761654105,7,-17591.5,-293.19,392,400,-8,0,,,
2240,1761654115,1761654115,6,-17581.5,-293.02,392,399,-8,-1,,,
2241,1761654116,1761654116,1,-17580.5,-293.01,392,398,-8,-2,,,
2244,1761654119,1761654119,11.5,-17577.5,-292.96,392,401,-8,1,,,
2248,1761654123,1761654123,2.5,-17573.5,-292.89,392,399,-8,-1,,,
2249,1761654124,1761654124,8.5,-17572.5,-292.87,392,399,-8,-1,,,
2251,1761654126,1761654126,6,-17570.5,-292.84,392,399,-8,-1,,,
2253,1761654128,1761654128,6,-17568.5,-292.81,392,400,-8,0,,,
2255,1761654130,1761654130,7.5,-17566.5,-292.77,392,400,-8,0,,,
2256,1761654131,1761654131,6.5,-17565.5,-292.76,392,399,-8,-1,,,
2259,1761654134,1761654134,8,-17562.5,-292.71,392,397,-8,-3,,,
2265,1761654140,1761654140,8.5,-17556.5,-292.61,392,400,-8,0,,,
2267,1761654142,1761654142,9.5,-17554.5,-292.57,392,400,-8,0,,,
2285,1761654160,1761654160,7.5,-17536.5,-292.27,392,401,-8,1,,,
2293,1761654168,1761654168,10,-17528.5,-292.14,392,398,-8,-2,,,
2302,1761654177,1761654177,5.5,-17519.5,-291.99,392,400,-8,0,,,
2304,1761654179,1761654179,0.5,-17517.5,-291.96,392,399,-8,-1,,,
2313,1761654188,1761654188,10,-17508.4,-291.81,392,400,-8,0,,,
2318,1761654193,1761654193,9,-17503.4,-291.72,392,398,-8,-2,,,
2333,1761654208,1761654208,9.5,-17488.4,-291.47,392,398,-8,-2,,,
2338,1761654213,1761654213,4,-17483.4,-291.39,392,400,-8,0,,,
2341,1761654216,1761654216,10,-17480.4,-291.34,392,399,-8,-1,,,
2346,1761654221,1761654221,8,-17475.4,-291.26,392,400,-8,0,,,
2348,1761654223,1761654223,8,-17473.4,-291.22,392,399,-8,-1,,,
2350,1761654225,1761654225,5,-17471.4,-291.19,392,399,-8,-1,,,
2351,1761654226,1761654226,9.5,-17470.4,-291.17,392,398,-8,-2,,,
2352,1761654227,1761654227,13.5,-17469.4,-291.16,392,400,-8,0,,,
2354,1761654229,1761654229,13.5,-17467.4,-291.12,392,399,-8,-1,,,
2356,1761654231,1761654231,1.5,-17465.4,-291.09,392,400,-8,0,,,
2357,1761654232,1761654232,6.5,-17464.4,-291.07,392,399,-8,-1,,,
2373,1761654248,1761654248,8.5,-17448.4,-290.81,392,400,-8,0,,,
2374,1761654249,1761654249,4.5,-17447.4,-290.79,392,399,-8,-1,,,
2385,1761654260,1761654260,9.5,-17436.4,-290.61,392,400,-8,0,,,
2389,1761654264,1761654264,3.5,-17432.4,-290.54,392,400,-8,0,,,
2390,1761654265,1761654265,2,-17431.4,-290.52,392,399,-8,-1,,,
2391,1761654266,1761654266,8.5,-17430.4,-290.51,392,400,-8,0,,,
2392,1761654267,1761654267,7,-17429.4,-290.49,392,401,-8,1,,,
2394,1761654269,1761654269,0.5,-17427.4,-290.46,392,399,-8,-1,,,
2400,1761654275,1761654275,4.5,-17421.4,-290.36,392,400,-8,0,,,
2403,1761654278,1761654278,4.5,-17418.4,-290.31,392,398,-8,-2,,,
2405,1761654280,1761654280,10.5,-17416.4,-290.27,392,401,-8,1,,,
2410,1761654285,1761654285,8,-17411.4,-290.19,392,401,-8,1,,,
2412,1761654287,1761654287,3,-17409.4,-290.16,392,400,-8,0,,,
2418,1761654293,1761654293,5,-17403.4,-290.06,392,400,-8,0,,,
2420,1761654295,1761654295,11,-17401.4,-290.02,392,399,-8,-1,,,
2421,1761654296,1761654296,7.5,-17400.4,-290.01,392,399,-8,-1,,,
2423,1761654298,1761654298,4.5,-17398.4,-289.97,392,399,-8,-1,,,
2425,1761654300,1761654300,5.5,-17396.4,-289.94,392,400,-8,0,,,
2429,1761654304,1761654304,5.5,-17392.4,-289.87,392,400,-8,0,,,
2433,1761654308,1761654308,4.5,-17388.4,-289.81,392,399,-8,-1,,,
2437,1761654312,1761654312,5,-17384.4,-289.74,392,400,-8,0,,,
2441,1761654316,1761654316,3.5,-17380.4,-289.67,392,399,-8,-1,,,
2442,1761654317,1761654317,9.5,-17379.4,-289.66,392,400,-8,0,,,
2447,1761654322,1761654322,4,-17374.4,-289.57,392,400,-8,0,,,
2450,1761654325,1761654325,3.5,-17371.4,-289.52,392,400,-8,0,,,
2451,1761654326,1761654326,12.5,-17370.4,-289.51,392,398,-8,-2,,,
2459,1761654334,1761654334,10,-17362.4,-289.37,392,399,-8,-1,,,
2467,1761654342,1761654342,5,-17354.4,-289.24,392,397,-8,-3,,,
2473,1761654348,1761654348,11,-17348.4,-289.14,392,398,-8,-2,,,
2477,1761654352,1761654352,7.5,-17344.4,-289.07,392,399,-8,-1,,,
2481,1761654356,1761654356,10,-17340.4,-289.01,392,399,-8,-1,,,
2490,1761654365,1761654365,6.5,-17331.4,-288.86,392,400,-8,0,,,
2493,1761654368,1761654368,11,-17328.4,-288.81,392,400,-8,0,,,
2495,1761654370,1761654370,11,-17326.4,-288.77,392,400,-8,0,,,
2499,1761654374,1761654374,8.5,-17322.4,-288.71,392,399,-8,-1,,,
2500,1761654375,1761654375,6,-17321.4,-288.69,392,399,-8,-1,,,
2506,1761654381,1761654381,4.5,-17315.4,-288.59,392,399,-8,-1,,,
2509,1761654384,1761654384,10,-17312.4,-288.54,392,400,-8,0,,,
2510,1761654385,1761654385,4,-17311.4,-288.52,392,397,-8,-3,,,
2520,1761654395,1761654395,5,-17301.4,-288.36,392,399,-8,-1,,,
2524,1761654399,1761654399,6,-17297.4,-288.29,392,400,-8,0,,,
2528,1761654403,1761654403,7,-17293.4,-288.22,392,399,-8,-1,,,
2529,1761654404,1761654404,9.5,-17292.4,-288.21,392,399,-8,-1,,,
2535,1761654410,1761654410,8,-17286.4,-288.11,392,399,-8,-1,,,
2537,1761654412,1761654412,13,-17284.4,-288.07,392,400,-8,0,,,
2539,1761654414,1761654414,9,-17282.4,-288.04,392,399,-8,-1,,,
2544,1761654419,1761654419,7,-17277.4,-287.96,392,399,-8,-1,,,
2546,1761654421,1761654421,10,-17275.4,-287.92,392,400,-8,0,,,
2549,1761654424,1761654424,3.5,-17272.4,-287.87,392,399,-8,-1,,,
2551,1761654426,1761654426,1.5,-17270.4,-287.84,392,398,-8,-2,,,
2552,1761654427,1761654427,5,-17269.4,-287.82,392,398,-8,-2,,,
2558,1761654433,1761654433,2.5,-17263.4,-287.72,392,399,-8,-1,,,
2561,1761654436,1761654436,9.5,-17260.4,-287.67,392,399,-8,-1,,,
2564,1761654439,1761654439,3.5,-17257.4,-287.62,392,400,-8,0,,,
2567,1761654442,1761654442,10.5,-17254.3,-287.57,392,399,-8,-1,,,
2584,1761654459,1761654459,1,-17237.3,-287.29,392,399,-8,-1,,,
2588,1761654463,1761654463,7,-17233.3,-287.22,392,400,-8,0,,,
2592,1761654467,1761654467,5.5,-17229.3,-287.16,392,399,-8,-1,,,
2604,1761654479,1761654479,8,-17217.3,-286.96,392,399,-8,-1,,,
2610,1761654485,1761654485,9,-17211.3,-286.86,392,401,-8,1,,,
2613,1761654488,1761654488,5,-17208.3,-286.81,392,399,-8,-1,,,
2623,1761654498,1761654498,5,-17198.3,-286.64,392,399,-8,-1,,,
2627,1761654502,1761654502,5.5,-17194.3,-286.57,392,398,-8,-2,,,
2630,1761654505,1761654505,9,-17191.3,-286.52,392,400,-8,0,,,
2632,1761654507,1761654507,12,-17189.3,-286.49,392,401,-8,1,,,
2646,1761654521,1761654521,9.5,-17175.3,-286.26,392,400,-8,0,,,
2657,1761654532,1761654532,4.5,-17164.3,-286.07,392,400,-8,0,,,
2658,1761654533,1761654533,11.5,-17163.3,-286.06,392,399,-8,-1,,,
2660,1761654535,1761654535,3,-17161.3,-286.02,392,400,-8,0,,,
2663,1761654538,1761654538,7,-17158.3,-285.97,392,399,-8,-1,,,
2665,1761654540,1761654540,10.5,-17156.3,-285.94,392,400,-8,0,,,
2672,1761654547,1761654547,3.5,-17149.3,-285.82,392,399,-8,-1,,,
2679,1761654554,1761654554,7.5,-17142.3,-285.71,392,399,-8,-1,,,
2681,1761654556,1761654556,12.5,-17140.3,-285.67,392,400,-8,0,,,
2685,1761654560,1761654560,7.5,-17136.3,-285.61,392,399,-8,-1,,,
2688,1761654563,1761654563,3.5,-17133.3,-285.56,392,400,-8,0,,,
2689,1761654564,1761654564,10.5,-17132.3,-285.54,392,400,-8,0,,,
2690,1761654565,1761654565,3.5,-17131.3,-285.52,392,400,-8,0,,,
2691,1761654566,1761654566,11,-17130.3,-285.51,392,399,-8,-1,,,
2712,1761654587,1761654587,4,-17109.3,-285.15,392,399,-8,-1,,,
2714,1761654589,1761654589,6,-17107.3,-285.12,392,398,-8,-2,,,
2716,1761654591,1761654591,6,-17105.3,-285.09,392,401,-8,1,,,
2718,1761654593,1761654593,5.5,-17103.3,-285.05,392,400,-8,0,,,
2719,1761654594,1761654594,10,-17102.3,-285.04,392,400,-8,0,,,
2721,1761654596,1761654596,9,-17100.3,-285,392,398,-8,-2,,,
2725,1761654600,1761654600,8,-17096.3,-284.94,392,400,-8,0,,,
2745,1761654620,1761654620,11,-17076.3,-284.6,392,398,-8,-2,,,
2753,1761654628,1761654628,5.5,-17068.3,-284.47,392,400,-8,0,,,
2760,1761654635,1761654635,4,-17061.3,-284.35,392,399,-8,-1,,,
2762,1761654637,1761654637,6.5,-17059.3,-284.32,392,400,-8,0,,,
2770,1761654645,1761654645,11.5,-17051.3,-284.19,392,400,-8,0,,,
2780,1761654655,1761654655,5.5,-17041.3,-284.02,392,399,-8,-1,,,
2784,1761654659,1761654659,1.5,-17037.3,-283.95,392,400,-8,0,,,
2810,1761654685,1761654685,1.5,-17011.3,-283.52,392,399,-8,-1,,,
2819,1761654694,1761654694,4,-17002.3,-283.37,392,399,-8,-1,,,
2824,1761654699,1761654699,5.5,-16997.3,-283.29,392,399,-8,-1,,,
2826,1761654701,1761654701,7,-16995.3,-283.25,392,398,-8,-2,,,
2832,1761654707,1761654707,9,-16989.3,-283.15,392,401,-8,1,,,
2833,1761654708,1761654708,5.5,-16988.3,-283.14,392,399,-8,-1,,,
2838,1761654713,1761654713,9.5,-16983.2,-283.05,392,400,-8,0,,,
2839,1761654714,1761654714,8,-16982.3,-283.04,392,401,-8,1,,,
2859,1761654734,1761654734,8.5,-16962.2,-282.7,392,400,-8,0,,,
2862,1761654737,1761654737,5.5,-16959.2,-282.65,392,400,-8,0,,,
2868,1761654743,1761654743,4,-16953.2,-282.55,392,400,-8,0,,,
2872,1761654747,1761654747,3,-16949.2,-282.49,392,399,-8,-1,,,
2873,1761654748,1761654748,5.5,-16948.2,-282.47,392,398,-8,-2,,,
2879,1761654754,1761654754,6,-16942.2,-282.37,392,399,-8,-1,,,
2881,1761654756,1761654756,9.5,-16940.2,-282.34,392,399,-8,-1,,,
2885,1761654760,1761654760,7.5,-16936.2,-282.27,392,400,-8,0,,,
2889,1761654764,1761654764,11.5,-16932.2,-282.2,392,401,-8,1,,,
2891,1761654766,1761654766,7.5,-16930.2,-282.17,392,401,-8,1,,,
2901,1761654776,1761654776,11,-16920.2,-282,392,399,-8,-1,,,
2905,1761654780,1761654780,10.5,-16916.2,-281.94,392,400,-8,0,,,
2906,1761654781,1761654781,8,-16915.2,-281.92,392,399,-8,-1,,,
2909,1761654784,1761654784,11.5,-16912.2,-281.87,392,400,-8,0,,,
2911,1761654786,1761654786,8.5,-16910.2,-281.84,392,400,-8,0,,,
2913,1761654788,1761654788,10.5,-16908.2,-281.8,392,400,-8,0,,,
2914,1761654789,1761654789,5.5,-16907.2,-281.79,392,399,-8,-1,,,
2915,1761654790,1761654790,12.5,-16906.2,-281.77,392,400,-8,0,,,
2919,1761654794,1761654794,9,-16902.2,-281.7,392,399,-8,-1,,,
2931,1761654806,1761654806,5,-16890.2,-281.5,392,401,-8,1,,,
2942,1761654817,1761654817,7,-16879.2,-281.32,392,399,-8,-1,,,
2954,1761654829,1761654829,9.5,-16867.2,-281.12,392,400,-8,0,,,
2955,1761654830,1761654830,8,-16866.2,-281.1,392,399,-8,-1,,,
2961,1761654836,1761654836,1.5,-16860.2,-281,392,399,-8,-1,,,
2964,1761654839,1761654839,11.5,-16857.2,-280.95,392,400,-8,0,,,
2971,1761654846,1761654846,3.5,-16850.2,-280.84,392,400,-8,0,,,
2985,1761654860,1761654860,6,-16836.2,-280.6,392,399,-8,-1,,,
2986,1761654861,1761654861,9.5,-16835.2,-280.59,392,400,-8,0,,,
2988,1761654863,1761654863,6.5,-16833.2,-280.55,392,400,-8,0,,,
3000,1761654875,1761654875,13,-16821.2,-280.35,392,399,-8,-1,,,
3003,1761654878,1761654878,3.5,-16818.2,-280.3,392,399,-8,-1,,,
3004,1761654879,1761654879,12,-16817.2,-280.29,392,399,-8,-1,,,
3006,1761654881,1761654881,8,-16815.2,-280.25,392,399,-8,-1,,,
3007,1761654882,1761654882,9,-16814.2,-280.24,392,401,-8,1,,,
3018,1761654893,1761654893,2.5,-16803.2,-280.05,392,399,-8,-1,,,
3020,1761654895,1761654895,4.5,-16801.2,-280.02,392,400,-8,0,,,
3024,1761654899,1761654899,4,-16797.2,-279.95,392,399,-8,-1,,,
3029,1761654904,1761654904,6.5,-16792.2,-279.87,392,397,-8,-3,,,
3036,1761654911,1761654911,4,-16785.2,-279.75,392,400,-8,0,,,
3037,1761654912,1761654912,10,-16784.2,-279.74,392,400,-8,0,,,
3041,1761654916,1761654916,10,-16780.2,-279.67,392,399,-8,-1,,,
3045,1761654920,1761654920,7.5,-16776.2,-279.6,392,399,-8,-1,,,
3046,1761654921,1761654921,4,-16775.2,-279.59,392,398,-8,-2,,,
3048,1761654923,1761654923,4.5,-16773.2,-279.55,392,400,-8,0,,,
3052,1761654927,1761654927,5.5,-16769.2,-279.49,392,400,-8,0,,,
3068,1761654943,1761654943,5.5,-16753.2,-279.22,392,400,-8,0,,,
3077,1761654952,1761654952,9,-16744.2,-279.07,392,400,-8,0,,,
3078,1761654953,1761654953,6.5,-16743.2,-279.05,392,399,-8,-1,,,
3080,1761654955,1761654955,5.5,-16741.2,-279.02,392,398,-8,-2,,,
3081,1761654956,1761654956,9,-16740.2,-279,392,400,-8,0,,,
3090,1761654965,1761654965,8,-16731.2,-278.85,392,400,-8,0,,,
3092,1761654967,1761654967,7.5,-16729.2,-278.82,392,398,-8,-2,,,
3095,1761654970,1761654970,11,-16726.2,-278.77,392,399,-8,-1,,,
3101,1761654976,1761654976,4.5,-16720.2,-278.67,392,399,-8,-1,,,
3103,1761654978,1761654978,9,-16718.2,-278.64,392,399,-8,-1,,,
3104,1761654979,1761654979,6.5,-16717.2,-278.62,392,399,-8,-1,,,
3107,1761654982,1761654982,10,-16714.2,-278.57,392,400,-8,0,,,
3109,1761654984,1761654984,12.5,-16712.2,-278.54,392,400,-8,0,,,
3110,1761654985,1761654985,2.5,-16711.2,-278.52,392,399,-8,-1,,,
3112,1761654987,1761654987,4.5,-16709.2,-278.49,392,399,-8,-1,,,
3119,1761654994,1761654994,11.5,-16702.1,-278.37,392,400,-8,0,,,
3127,1761655002,1761655002,7,-16694.1,-278.24,392,399,-8,-1,,,
3129,1761655004,1761655004,9,-16692.1,-278.2,392,400,-8,0,,,
3134,1761655009,1761655009,4,-16687.1,-278.12,392,400,-8,0,,,
3147,1761655022,1761655022,9.5,-16674.1,-277.9,392,399,-8,-1,,,
3149,1761655024,1761655024,12.5,-16672.1,-277.87,392,400,-8,0,,,
3150,1761655025,1761655025,4,-16671.1,-277.85,392,399,-8,-1,,,
3151,1761655026,1761655026,13.5,-16670.1,-277.84,392,401,-8,1,,,
3157,1761655032,1761655032,3,-16664.1,-277.74,392,399,-8,-1,,,
3163,1761655038,1761655038,4,-16658.1,-277.64,392,400,-8,0,,,
3164,1761655039,1761655039,9.5,-16657.1,-277.62,392,400,-8,0,,,
3167,1761655042,1761655042,0.5,-16654.1,-277.57,392,398,-8,-2,,,
3168,1761655043,1761655043,8,-16653.1,-277.55,392,400,-8,0,,,
3180,1761655055,1761655055,9.5,-16641.1,-277.35,392,400,-8,0,,,
3190,1761655065,1761655065,9.5,-16631.1,-277.19,392,399,-8,-1,,,
3193,1761655068,1761655068,2,-16628.1,-277.14,392,400,-8,0,,,
3195,1761655070,1761655070,3,-16626.1,-277.1,392,399,-8,-1,,,
3196,1761655071,1761655071,7.5,-16625.1,-277.09,392,398,-8,-2,,,
3199,1761655074,1761655074,0.5,-16622.1,-277.04,392,399,-8,-1,,,
3201,1761655076,1761655076,6.5,-16620.1,-277,392,400,-8,0,,,
3212,1761655087,1761655087,9.5,-16609.1,-276.82,392,400,-8,0,,,
3213,1761655088,1761655088,6,-16608.1,-276.8,392,400,-8,0,,,
3214,1761655089,1761655089,9,-16607.1,-276.79,392,399,-8,-1,,,
3216,1761655091,1761655091,12.5,-16605.1,-276.75,392,399,-8,-1,,,
3223,1761655098,1761655098,2.5,-16598.1,-276.64,392,398,-8,-2,,,
3226,1761655101,1761655101,9.5,-16595.1,-276.59,392,400,-8,0,,,
3236,1761655111,1761655111,7,-16585.1,-276.42,392,400,-8,0,,,
3237,1761655112,1761655112,7,-16584.1,-276.4,392,399,-8,-1,,,
3248,1761655123,1761655123,7,-16573.1,-276.22,392,398,-8,-2,,,
3253,1761655128,1761655128,13,-16568.1,-276.13,392,398,-8,-2,,,
3256,1761655131,1761655131,4,-16565.1,-276.09,392,398,-8,-2,,,
3258,1761655133,1761655133,8,-16563.1,-276.05,392,398,-8,-2,,,
3259,1761655134,1761655134,12.5,-16562.1,-276.03,392,400,-8,0,,,
3264,1761655139,1761655139,5.5,-16557.1,-275.95,392,400,-8,0,,,
3265,1761655140,1761655140,9,-16556.1,-275.93,392,399,-8,-1,,,
3271,1761655146,1761655146,4,-16550.1,-275.83,392,400,-8,0,,,
3276,1761655151,1761655151,8.5,-16545.1,-275.75,392,400,-8,0,,,
3278,1761655153,1761655153,9,-16543.1,-275.72,392,400,-8,0,,,
3280,1761655155,1761655155,3,-16541.1,-275.68,392,398,-8,-2,,,
3285,1761655160,1761655160,4.5,-16536.1,-275.6,392,399,-8,-1,,,
3286,1761655161,1761655161,8.5,-16535.1,-275.58,392,401,-8,1,,,
3287,1761655162,1761655162,5,-16534.1,-275.57,392,399,-8,-1,,,
3289,1761655164,1761655164,1.5,-16532.1,-275.53,392,399,-8,-1,,,
3290,1761655165,1761655165,8,-16531.1,-275.52,392,400,-8,0,,,
3295,1761655170,1761655170,6.5,-16526.1,-275.43,392,399,-8,-1,,,
3297,1761655172,1761655172,5,-16524.1,-275.4,392,400,-8,0,,,
3298,1761655173,1761655173,11,-16523.1,-275.38,392,398,-8,-2,,,
3302,1761655177,1761655177,11,-16519.1,-275.32,392,400,-8,0,,,
3308,1761655183,1761655183,9,-16513.1,-275.22,392,400,-8,0,,,
3310,1761655185,1761655185,14.5,-16511.1,-275.18,392,400,-8,0,,,
3326,1761655201,1761655201,12.5,-16495.1,-274.92,392,398,-8,-2,,,
3328,1761655203,1761655203,12.5,-16493.1,-274.88,392,400,-8,0,,,
3329,1761655204,1761655204,9,-16492.1,-274.87,392,400,-8,0,,,
3331,1761655206,1761655206,9,-16490.1,-274.83,392,399,-8,-1,,,
3334,1761655209,1761655209,16,-16487.1,-274.78,392,401,-8,1,,,
3337,1761655212,1761655212,4.5,-16484.1,-274.73,392,398,-8,-2,,,
3344,1761655219,1761655219,13,-16477.1,-274.62,392,401,-8,1,,,
3347,1761655222,1761655222,8,-16474.1,-274.57,392,399,-8,-1,,,
3351,1761655226,1761655226,10,-16470.1,-274.5,392,399,-8,-1,,,
3352,1761655227,1761655227,3.5,-16469.1,-274.48,392,399,-8,-1,,,
3360,1761655235,1761655235,5.5,-16461.1,-274.35,392,400,-8,0,,,
3372,1761655247,1761655247,10,-16449.1,-274.15,392,400,-8,0,,,
3376,1761655251,1761655251,7.5,-16445.1,-274.08,392,401,-8,1,,,
3378,1761655253,1761655253,9,-16443.1,-274.05,392,399,-8,-1,,,
3381,1761655256,1761655256,4,-16440.1,-274,392,400,-8,0,,,
3397,1761655272,1761655272,10.5,-16424,-273.73,392,399,-8,-1,,,
3406,1761655281,1761655281,5,-16415,-273.58,392,399,-8,-1,,,
3409,1761655284,1761655284,10.5,-16412,-273.53,392,399,-8,-1,,,
3412,1761655287,1761655287,5.5,-16409,-273.48,392,399,-8,-1,,,
3418,1761655293,1761655293,2.5,-16403,-273.38,392,399,-8,-1,,,
3420,1761655295,1761655295,4.5,-16401,-273.35,392,399,-8,-1,,,
3425,1761655300,1761655300,9,-16396,-273.27,392,400,-8,0,,,
3441,1761655316,1761655316,7,-16380,-273,392,398,-8,-2,,,
3442,1761655317,1761655317,6.5,-16379,-272.98,392,400,-8,0,,,
3445,1761655320,1761655320,11,-16376,-272.93,392,400,-8,0,,,
3448,1761655323,1761655323,6,-16373,-272.88,392,399,-8,-1,,,
3457,1761655332,1761655332,9,-16364,-272.73,392,399,-8,-1,,,
3458,1761655333,1761655333,4,-16363,-272.72,392,399,-8,-1,,,
3459,1761655334,1761655334,8.5,-16362,-272.7,392,400,-8,0,,,
3460,1761655335,1761655335,2.5,-16361,-272.68,392,399,-8,-1,,,
3461,1761655336,1761655336,10.5,-16360,-272.67,392,401,-8,1,,,
3462,1761655337,1761655337,3,-16359,-272.65,392,399,-8,-1,,,
3468,1761655343,1761655343,5,-16353,-272.55,392,400,-8,0,,,
3471,1761655346,1761655346,8.5,-16350,-272.5,392,399,-8,-1,,,
3481,1761655356,1761655356,16,-16340,-272.33,392,400,-8,0,,,
3482,1761655357,1761655357,5,-16339,-272.32,392,400,-8,0,,,
3488,1761655363,1761655363,6.5,-16333,-272.22,392,399,-8,-1,,,
3503,1761655378,1761655378,11.5,-16318,-271.97,392,399,-8,-1,,,
3504,1761655379,1761655379,6,-16317,-271.95,392,401,-8,1,,,
3507,1761655382,1761655382,9,-16314,-271.9,392,400,-8,0,,,
3510,1761655385,1761655385,6,-16311,-271.85,392,401,-8,1,,,
3521,1761655396,1761655396,8.5,-16300,-271.67,392,399,-8,-1,,,
3524,1761655399,1761655399,2,-16297,-271.62,392,398,-8,-2,,,
3528,1761655403,1761655403,9,-16293,-271.55,392,400,-8,0,,,
3540,1761655415,1761655415,8,-16281,-271.35,392,400,-8,0,,,
3541,1761655416,1761655416,5.5,-16280,-271.33,392,401,-8,1,,,
3547,1761655422,1761655422,0.5,-16274,-271.23,392,399,-8,-1,,,
3552,1761655427,1761655427,9.5,-16269,-271.15,392,400,-8,0,,,
3559,1761655434,1761655434,3,-16262,-271.03,392,400,-8,0,,,
3560,1761655435,1761655435,10,-16261,-271.02,392,401,-8,1,,,
3573,1761655448,1761655448,5.5,-16248,-270.8,392,400,-8,0,,,
3577,1761655452,1761655452,3,-16244,-270.73,392,400,-8,0,,,
3580,1761655455,1761655455,12,-16241,-270.68,392,401,-8,1,,,
3588,1761655463,1761655463,12,-16233,-270.55,392,400,-8,0,,,
3590,1761655465,1761655465,9.5,-16231,-270.52,392,399,-8,-1,,,
3593,1761655468,1761655468,5.5,-16228,-270.47,392,400,-8,0,,,
3600,1761655475,1761655475,11,-16221,-270.35,392,399,-8,-1,,,
3611,1761655486,1761655486,4,-16210,-270.17,392,399,-8,-1,,,
22,1761651896,1761651896,4,-19800.3,-330.01,391,393,-9,-7,,,
23,1761651897,1761651897,6.5,-19799.3,-329.99,391,399,-9,-1,,,
27,1761651901,1761651901,5,-19795.3,-329.92,391,400,-9,0,,,
28,1761651902,1761651902,9,-19794.3,-329.91,391,399,-9,-1,,,
32,1761651906,1761651906,10,-19790.3,-329.84,391,399,-9,-1,,,
35,1761651909,1761651909,9.5,-19787.3,-329.79,391,400,-9,0,,,
45,1761651919,1761651919,6.5,-19777.3,-329.62,391,398,-9,-2,,,
47,1761651921,1761651921,6.5,-19775.3,-329.59,391,400,-9,0,,,
51,1761651925,1761651925,6.5,-19771.3,-329.52,391,399,-9,-1,,,
52,1761651926,1761651926,3,-19770.3,-329.51,391,399,-9,-1,,,
56,1761651930,1761651930,4,-19766.3,-329.44,391,399,-9,-1,,,
61,1761651935,1761651935,8.5,-19761.3,-329.35,391,399,-9,-1,,,
65,1761651939,1761651939,11,-19757.3,-329.29,391,400,-9,0,,,
67,1761651941,1761651941,9.5,-19755.3,-329.25,391,400,-9,0,,,
68,1761651942,1761651942,3.5,-19754.3,-329.24,391,399,-9,-1,,,
69,1761651943,1761651943,10.5,-19753.3,-329.22,391,400,-9,0,,,
70,1761651944,1761651944,7,-19752.3,-329.2,391,401,-9,1,,,
78,1761651952,1761651952,8,-19744.3,-329.07,391,400,-9,0,,,
88,1761651962,1761651962,4.5,-19734.3,-328.9,391,399,-9,-1,,,
89,1761651963,1761651963,10.5,-19733.3,-328.89,391,401,-9,1,,,
93,1761651967,1761651967,12.5,-19729.3,-328.82,391,400,-9,0,,,
94,1761651968,1761651968,2.5,-19728.3,-328.8,391,397,-9,-3,,,
105,1761651979,1761651979,11.5,-19717.3,-328.62,391,400,-9,0,,,
115,1761651989,1761651989,12.5,-19707.3,-328.45,391,400,-9,0,,,
123,1761651997,1761651997,13,-19699.3,-328.32,391,399,-9,-1,,,
130,1761652004,1761652004,8,-19692.3,-328.2,391,400,-9,0,,,
133,1761652007,1761652007,14,-19689.3,-328.15,391,401,-9,1,,,
136,1761652010,1761652010,4.5,-19686.3,-328.1,391,400,-9,0,,,
138,1761652012,1761652012,11.5,-19684.3,-328.07,391,400,-9,0,,,
142,1761652016,1761652016,11.5,-19680.3,-328,391,400,-9,0,,,
145,1761652019,1761652019,7,-19677.3,-327.95,391,401,-9,1,,,
148,1761652022,1761652022,11.5,-19674.3,-327.9,391,400,-9,0,,,
155,1761652029,1761652029,12.5,-19667.3,-327.79,391,399,-9,-1,,,
157,1761652031,1761652031,13.5,-19665.2,-327.75,391,401,-9,1,,,
160,1761652034,1761652034,8,-19662.3,-327.7,391,397,-9,-3,,,
163,1761652037,1761652037,10.5,-19659.2,-327.65,391,400,-9,0,,,
165,1761652039,1761652039,13,-19657.2,-327.62,391,400,-9,0,,,
169,1761652043,1761652043,9,-19653.2,-327.55,391,400,-9,0,,,
175,1761652049,1761652049,1.5,-19647.3,-327.45,391,398,-9,-2,,,
177,1761652051,1761652051,3.5,-19645.2,-327.42,391,399,-9,-1,,,
181,1761652055,1761652055,1,-19641.2,-327.35,391,400,-9,0,,,
182,1761652056,1761652056,8,-19640.2,-327.34,391,397,-9,-3,,,
188,1761652062,1761652062,9.5,-19634.2,-327.24,391,400,-9,0,,,
191,1761652065,1761652065,6,-19631.2,-327.19,391,401,-9,1,,,
192,1761652066,1761652066,10.5,-19630.2,-327.17,391,398,-9,-2,,,
194,1761652068,1761652068,9,-19628.2,-327.14,391,399,-9,-1,,,
202,1761652076,1761652076,12,-19620.2,-327,391,399,-9,-1,,,
208,1761652082,1761652082,13,-19614.2,-326.9,391,400,-9,0,,,
209,1761652083,1761652083,7,-19613.2,-326.89,391,400,-9,0,,,
213,1761652087,1761652087,3,-19609.2,-326.82,391,400,-9,0,,,
215,1761652089,1761652089,3,-19607.2,-326.79,391,398,-9,-2,,,
219,1761652093,1761652093,4,-19603.2,-326.72,391,399,-9,-1,,,
224,1761652098,1761652098,10,-19598.2,-326.64,391,400,-9,0,,,
229,1761652103,1761652103,7,-19593.2,-326.55,391,400,-9,0,,,
232,1761652106,1761652106,12.5,-19590.2,-326.5,391,401,-9,1,,,
234,1761652108,1761652108,9.5,-19588.2,-326.47,391,400,-9,0,,,
242,1761652116,1761652116,10.5,-19580.2,-326.34,391,399,-9,-1,,,
245,1761652119,1761652119,7.5,-19577.2,-326.29,391,400,-9,0,,,
247,1761652121,1761652121,3.5,-19575.2,-326.25,391,398,-9,-2,,,
249,1761652123,1761652123,11,-19573.2,-326.22,391,400,-9,0,,,
253,1761652127,1761652127,6.5,-19569.2,-326.15,391,400,-9,0,,,
256,1761652130,1761652130,3.5,-19566.2,-326.1,391,399,-9,-1,,,
257,1761652131,1761652131,2,-19565.2,-326.09,391,397,-9,-3,,,
260,1761652134,1761652134,5,-19562.2,-326.04,391,399,-9,-1,,,
261,1761652135,1761652135,5,-19561.2,-326.02,391,399,-9,-1,,,
264,1761652138,1761652138,6,-19558.2,-325.97,391,401,-9,1,,,
265,1761652139,1761652139,5.5,-19557.2,-325.95,391,399,-9,-1,,,
267,1761652141,1761652141,9,-19555.2,-325.92,391,400,-9,0,,,
273,1761652147,1761652147,10,-19549.2,-325.82,391,400,-9,0,,,
275,1761652149,1761652149,4.5,-19547.2,-325.79,391,400,-9,0,,,
277,1761652151,1761652151,5.5,-19545.2,-325.75,391,398,-9,-2,,,
278,1761652152,1761652152,3,-19544.2,-325.74,391,397,-9,-3,,,
283,1761652157,1761652157,11,-19539.2,-325.65,391,400,-9,0,,,
284,1761652158,1761652158,6,-19538.2,-325.64,391,400,-9,0,,,
287,1761652161,1761652161,8,-19535.2,-325.59,391,400,-9,0,,,
288,1761652162,1761652162,8,-19534.2,-325.57,391,398,-9,-2,,,
289,1761652163,1761652163,13.5,-19533.2,-325.55,391,399,-9,-1,,,
298,1761652172,1761652172,5,-19524.2,-325.4,391,399,-9,-1,,,
299,1761652173,1761652173,9,-19523.2,-325.39,391,400,-9,0,,,
301,1761652175,1761652175,13.5,-19521.2,-325.35,391,400,-9,0,,,
304,1761652178,1761652178,5,-19518.2,-325.3,391,400,-9,0,,,
305,1761652179,1761652179,11,-19517.2,-325.29,391,397,-9,-3,,,
311,1761652185,1761652185,12,-19511.2,-325.19,391,399,-9,-1,,,
324,1761652198,1761652198,5,-19498.2,-324.97,391,398,-9,-2,,,
325,1761652199,1761652199,11,-19497.2,-324.95,391,401,-9,1,,,
330,1761652204,1761652204,5.5,-19492.2,-324.87,391,400,-9,0,,,
332,1761652206,1761652206,7,-19490.2,-324.84,391,401,-9,1,,,
334,1761652208,1761652208,6,-19488.2,-324.8,391,399,-9,-1,,,
335,1761652209,1761652209,9,-19487.2,-324.79,391,400,-9,0,,,
337,1761652211,1761652211,10.5,-19485.2,-324.75,391,399,-9,-1,,,
347,1761652221,1761652221,10.5,-19475.2,-324.59,391,400,-9,0,,,
348,1761652222,1761652222,4.5,-19474.2,-324.57,391,399,-9,-1,,,
349,1761652223,1761652223,12.5,-19473.2,-324.55,391,400,-9,0,,,
351,1761652225,1761652225,11.5,-19471.2,-324.52,391,400,-9,0,,,
358,1761652232,1761652232,10.5,-19464.2,-324.4,391,398,-9,-2,,,
363,1761652237,1761652237,6,-19459.2,-324.32,391,400,-9,0,,,
366,1761652240,1761652240,10.5,-19456.2,-324.27,391,399,-9,-1,,,
369,1761652243,1761652243,8,-19453.2,-324.22,391,401,-9,1,,,
370,1761652244,1761652244,10,-19452.2,-324.2,391,399,-9,-1,,,
374,1761652248,1761652248,11.5,-19448.2,-324.14,391,399,-9,-1,,,
376,1761652250,1761652250,9,-19446.2,-324.1,391,399,-9,-1,,,
378,1761652252,1761652252,8.5,-19444.2,-324.07,391,396,-9,-4,,,
380,1761652254,1761652254,11,-19442.2,-324.04,391,399,-9,-1,,,
381,1761652255,1761652255,8.5,-19441.2,-324.02,391,398,-9,-2,,,
382,1761652256,1761652256,11.5,-19440.2,-324,391,399,-9,-1,,,
383,1761652257,1761652257,7.5,-19439.2,-323.99,391,397,-9,-3,,,
384,1761652258,1761652258,13.5,-19438.2,-323.97,391,401,-9,1,,,
385,1761652259,1761652259,6,-19437.2,-323.95,391,400,-9,0,,,
398,1761652272,1761652272,13.5,-19424.2,-323.74,391,400,-9,0,,,
399,1761652273,1761652273,6.5,-19423.2,-323.72,391,399,-9,-1,,,
401,1761652275,1761652275,8,-19421.2,-323.69,391,400,-9,0,,,
405,1761652279,1761652279,8.5,-19417.2,-323.62,391,401,-9,1,,,
412,1761652286,1761652286,3.5,-19410.2,-323.5,391,400,-9,0,,,
413,1761652287,1761652287,8,-19409.2,-323.49,391,400,-9,0,,,
417,1761652291,1761652291,8.5,-19405.2,-323.42,391,400,-9,0,,,
418,1761652292,1761652292,1.5,-19404.2,-323.4,391,398,-9,-2,,,
419,1761652293,1761652293,7.5,-19403.2,-323.39,391,400,-9,0,,,
423,1761652297,1761652297,11.5,-19399.1,-323.32,391,400,-9,0,,,
425,1761652299,1761652299,11.5,-19397.1,-323.29,391,400,-9,0,,,
426,1761652300,1761652300,6.5,-19396.2,-323.27,391,399,-9,-1,,,
433,1761652307,1761652307,8.5,-19389.1,-323.15,391,400,-9,0,,,
435,1761652309,1761652309,12,-19387.1,-323.12,391,399,-9,-1,,,
438,1761652312,1761652312,5,-19384.2,-323.07,391,400,-9,0,,,
441,1761652315,1761652315,11.5,-19381.1,-323.02,391,399,-9,-1,,,
443,1761652317,1761652317,9,-19379.1,-322.99,391,399,-9,-1,,,
444,1761652318,1761652318,6.5,-19378.1,-322.97,391,400,-9,0,,,
446,1761652320,1761652320,0,-19376.1,-322.94,391,397,-9,-3,,,
452,1761652326,1761652326,7.5,-19370.1,-322.84,391,397,-9,-3,,,
455,1761652329,1761652329,10.5,-19367.1,-322.79,391,399,-9,-1,,,
456,1761652330,1761652330,8,-19366.1,-322.77,391,399,-9,-1,,,
458,1761652332,1761652332,4.5,-19364.1,-322.74,391,399,-9,-1,,,
460,1761652334,1761652334,5,-19362.1,-322.7,391,400,-9,0,,,
461,1761652335,1761652335,9.5,-19361.1,-322.69,391,399,-9,-1,,,
463,1761652337,1761652337,14,-19359.1,-322.65,391,399,-9,-1,,,
467,1761652341,1761652341,11,-19355.1,-322.59,391,400,-9,0,,,
483,1761652357,1761652357,2.5,-19339.1,-322.32,391,399,-9,-1,,,
485,1761652359,1761652359,0.5,-19337.1,-322.29,391,400,-9,0,,,
487,1761652361,1761652361,1.5,-19335.1,-322.25,391,399,-9,-1,,,
490,1761652364,1761652364,3.5,-19332.1,-322.2,391,400,-9,0,,,
494,1761652368,1761652368,5,-19328.1,-322.14,391,396,-9,-4,,,
499,1761652373,1761652373,11.5,-19323.1,-322.05,391,399,-9,-1,,,
500,1761652374,1761652374,7,-19322.1,-322.04,391,399,-9,-1,,,
506,1761652380,1761652380,7,-19316.1,-321.94,391,400,-9,0,,,
511,1761652385,1761652385,12.5,-19311.1,-321.85,391,399,-9,-1,,,
513,1761652387,1761652387,11,-19309.1,-321.82,391,399,-9,-1,,,
514,1761652388,1761652388,10,-19308.1,-321.8,391,399,-9,-1,,,
515,1761652389,1761652389,13.5,-19307.1,-321.79,391,400,-9,0,,,
516,1761652390,1761652390,7.5,-19306.1,-321.77,391,400,-9,0,,,
517,1761652391,1761652391,15,-19305.1,-321.75,391,400,-9,0,,,
518,1761652392,1761652392,5,-19304.1,-321.74,391,399,-9,-1,,,
519,1761652393,1761652393,8.5,-19303.1,-321.72,391,397,-9,-3,,,
527,1761652401,1761652401,3,-19295.1,-321.59,391,399,-9,-1,,,
532,1761652406,1761652406,6.5,-19290.1,-321.5,391,398,-9,-2,,,
536,1761652410,1761652410,6,-19286.1,-321.44,391,398,-9,-2,,,
537,1761652411,1761652411,4.5,-19285.1,-321.42,391,400,-9,0,,,
542,1761652416,1761652416,5,-19280.1,-321.34,391,398,-9,-2,,,
546,1761652420,1761652420,9,-19276.1,-321.27,391,401,-9,1,,,
547,1761652421,1761652421,6,-19275.1,-321.25,391,400,-9,0,,,
548,1761652422,1761652422,9.5,-19274.1,-321.24,391,400,-9,0,,,
551,1761652425,1761652425,4,-19271.1,-321.19,391,398,-9,-2,,,
553,1761652427,1761652427,3,-19269.1,-321.15,391,400,-9,0,,,
556,1761652430,1761652430,8,-19266.1,-321.1,391,399,-9,-1,,,
558,1761652432,1761652432,9,-19264.1,-321.07,391,400,-9,0,,,
560,1761652434,1761652434,10,-19262.1,-321.04,391,400,-9,0,,,
561,1761652435,1761652435,4,-19261.1,-321.02,391,400,-9,0,,,
570,1761652444,1761652444,9,-19252.1,-320.87,391,397,-9,-3,,,
578,1761652452,1761652452,15.5,-19244.1,-320.73,391,400,-9,0,,,
593,1761652467,1761652467,13,-19229.1,-320.48,391,400,-9,0,,,
601,1761652475,1761652475,13,-19221.1,-320.35,391,400,-9,0,,,
604,1761652478,1761652478,5.5,-19218.1,-320.3,391,399,-9,-1,,,
605,1761652479,1761652479,12.5,-19217.1,-320.28,391,400,-9,0,,,
606,1761652480,1761652480,8.5,-19216.1,-320.27,391,400,-9,0,,,
616,1761652490,1761652490,5.5,-19206.1,-320.1,391,399,-9,-1,,,
618,1761652492,1761652492,6.5,-19204.1,-320.07,391,398,-9,-2,,,
619,1761652493,1761652493,13,-19203.1,-320.05,391,398,-9,-2,,,
620,1761652494,1761652494,5.5,-19202.1,-320.03,391,399,-9,-1,,,
621,1761652495,1761652495,9.5,-19201.1,-320.02,391,400,-9,0,,,
625,1761652499,1761652499,1.5,-19197.1,-319.95,391,399,-9,-1,,,
626,1761652500,1761652500,11,-19196.1,-319.93,391,399,-9,-1,,,
627,1761652501,1761652501,5.5,-19195.1,-319.92,391,400,-9,0,,,
630,1761652504,1761652504,4,-19192.1,-319.87,391,398,-9,-2,,,
631,1761652505,1761652505,2.5,-19191.1,-319.85,391,400,-9,0,,,
633,1761652507,1761652507,4.5,-19189.1,-319.82,391,400,-9,0,,,
635,1761652509,1761652509,2,-19187.1,-319.78,391,400,-9,0,,,
636,1761652510,1761652510,9,-19186.1,-319.77,391,400,-9,0,,,
639,1761652513,1761652513,5,-19183.1,-319.72,391,400,-9,0,,,
640,1761652514,1761652514,12,-19182.1,-319.7,391,401,-9,1,,,
641,1761652515,1761652515,3.5,-19181.1,-319.68,391,399,-9,-1,,,
645,1761652519,1761652519,4,-19177.1,-319.62,391,401,-9,1,,,
652,1761652526,1761652526,8.5,-19170.1,-319.5,391,400,-9,0,,,
654,1761652528,1761652528,11,-19168.1,-319.47,391,400,-9,0,,,
655,1761652529,1761652529,6,-19167.1,-319.45,391,400,-9,0,,,
657,1761652531,1761652531,5,-19165.1,-319.42,391,399,-9,-1,,,
659,1761652533,1761652533,5.5,-19163.1,-319.38,391,400,-9,0,,,
660,1761652534,1761652534,12,-19162.1,-319.37,391,399,-9,-1,,,
661,1761652535,1761652535,4,-19161.1,-319.35,391,401,-9,1,,,
668,1761652542,1761652542,11,-19154.1,-319.23,391,400,-9,0,,,
670,1761652544,1761652544,11,-19152.1,-319.2,391,398,-9,-2,,,
671,1761652545,1761652545,7.5,-19151.1,-319.18,391,398,-9,-2,,,
672,1761652546,1761652546,12.5,-19150.1,-319.17,391,400,-9,0,,,
673,1761652547,1761652547,3,-19149.1,-319.15,391,399,-9,-1,,,
675,1761652549,1761652549,4.5,-19147.1,-319.12,391,398,-9,-2,,,
681,1761652555,1761652555,9.5,-19141.1,-319.02,391,401,-9,1,,,
682,1761652556,1761652556,12,-19140.1,-319,391,400,-9,0,,,
684,1761652558,1761652558,12,-19138.1,-318.97,391,400,-9,0,,,
686,1761652560,1761652560,11,-19136.1,-318.93,391,400,-9,0,,,
687,1761652561,1761652561,7.5,-19135.1,-318.92,391,400,-9,0,,,
690,1761652564,1761652564,11,-19132,-318.87,391,400,-9,0,,,
691,1761652565,1761652565,7.5,-19131.1,-318.85,391,400,-9,0,,,
696,1761652570,1761652570,9.5,-19126,-318.77,391,399,-9,-1,,,
702,1761652576,1761652576,9,-19120,-318.67,391,400,-9,0,,,
703,1761652577,1761652577,9,-19119,-318.65,391,400,-9,0,,,
706,1761652580,1761652580,2,-19116.1,-318.6,391,399,-9,-1,,,
709,1761652583,1761652583,6,-19113,-318.55,391,400,-9,0,,,
711,1761652585,1761652585,9,-19111,-318.52,391,399,-9,-1,,,
714,1761652588,1761652588,1.5,-19108,-318.47,391,399,-9,-1,,,
717,1761652591,1761652591,7.5,-19105,-318.42,391,399,-9,-1,,,
721,1761652595,1761652595,9.5,-19101,-318.35,391,398,-9,-2,,,
730,1761652604,1761652604,5.5,-19092,-318.2,391,400,-9,0,,,
731,1761652605,1761652605,9,-19091,-318.18,391,398,-9,-2,,,
737,1761652611,1761652611,5.5,-19085,-318.08,391,398,-9,-2,,,
739,1761652613,1761652613,3,-19083,-318.05,391,400,-9,0,,,
741,1761652615,1761652615,6.5,-19081,-318.02,391,398,-9,-2,,,
743,1761652617,1761652617,5,-19079,-317.98,391,399,-9,-1,,,
745,1761652619,1761652619,5.5,-19077,-317.95,391,400,-9,0,,,
748,1761652622,1761652622,13.5,-19074,-317.9,391,398,-9,-2,,,
749,1761652623,1761652623,9,-19073,-317.88,391,400,-9,0,,,
753,1761652627,1761652627,8.5,-19069,-317.82,391,399,-9,-1,,,
756,1761652630,1761652630,10.5,-19066,-317.77,391,400,-9,0,,,
760,1761652634,1761652634,13,-19062,-317.7,391,399,-9,-1,,,
766,1761652640,1761652640,13,-19056,-317.6,391,400,-9,0,,,
771,1761652645,1761652645,2.5,-19051,-317.52,391,398,-9,-2,,,
776,1761652650,1761652650,11.5,-19046,-317.43,391,397,-9,-3,,,
778,1761652652,1761652652,3,-19044,-317.4,391,400,-9,0,,,
779,1761652653,1761652653,4.5,-19043,-317.38,391,399,-9,-1,,,
780,1761652654,1761652654,3,-19042,-317.37,391,399,-9,-1,,,
781,1761652655,1761652655,11,-19041,-317.35,391,400,-9,0,,,
782,1761652656,1761652656,0.5,-19040,-317.33,391,399,-9,-1,,,
783,1761652657,1761652657,9.5,-19039,-317.32,391,400,-9,0,,,
784,1761652658,1761652658,5,-19038,-317.3,391,400,-9,0,,,
787,1761652661,1761652661,6.5,-19035,-317.25,391,400,-9,0,,,
793,1761652667,1761652667,11,-19029,-317.15,391,400,-9,0,,,
796,1761652670,1761652670,1.5,-19026,-317.1,391,398,-9,-2,,,
797,1761652671,1761652671,11.5,-19025,-317.08,391,400,-9,0,,,
798,1761652672,1761652672,5,-19024,-317.07,391,397,-9,-3,,,
799,1761652673,1761652673,12.5,-19023,-317.05,391,401,-9,1,,,
800,1761652674,1761652674,5,-19022,-317.03,391,399,-9,-1,,,
801,1761652675,1761652675,8.5,-19021,-317.02,391,400,-9,0,,,
805,1761652679,1761652679,7,-19017,-316.95,391,400,-9,0,,,
813,1761652687,1761652687,9,-19009,-316.82,391,400,-9,0,,,
817,1761652691,1761652691,9,-19005,-316.75,391,400,-9,0,,,
819,1761652693,1761652693,10,-19003,-316.72,391,400,-9,0,,,
824,1761652698,1761652698,5.5,-18998,-316.63,391,400,-9,0,,,
825,1761652699,1761652699,9,-18997,-316.62,391,401,-9,1,,,
826,1761652700,1761652700,1.5,-18996,-316.6,391,399,-9,-1,,,
828,1761652702,1761652702,4,-18994,-316.57,391,400,-9,0,,,
833,1761652707,1761652707,11.5,-18989,-316.48,391,399,-9,-1,,,
836,1761652710,1761652710,8,-18986,-316.43,391,399,-9,-1,,,
840,1761652714,1761652714,6.5,-18982,-316.37,391,400,-9,0,,,
842,1761652716,1761652716,10,-18980,-316.33,391,400,-9,0,,,
845,1761652719,1761652719,10,-18977,-316.28,391,400,-9,0,,,
846,1761652720,1761652720,8,-18976,-316.27,391,400,-9,0,,,
847,1761652721,1761652721,9,-18975,-316.25,391,399,-9,-1,,,
849,1761652723,1761652723,10.5,-18973,-316.22,391,399,-9,-1,,,
850,1761652724,1761652724,2,-18972,-316.2,391,399,-9,-1,,,
852,1761652726,1761652726,9.5,-18970,-316.17,391,400,-9,0,,,
855,1761652729,1761652729,13,-18967,-316.12,391,400,-9,0,,,
856,1761652730,1761652730,10.5,-18966,-316.1,391,400,-9,0,,,
857,1761652731,1761652731,16,-18965,-316.08,391,398,-9,-2,,,
858,1761652732,1761652732,10,-18964,-316.07,391,401,-9,1,,,
860,1761652734,1761652734,6,-18962,-316.03,391,401,-9,1,,,
867,1761652741,1761652741,2.5,-18955,-315.92,391,400,-9,0,,,
868,1761652742,1761652742,8.5,-18954,-315.9,391,399,-9,-1,,,
869,1761652743,1761652743,5,-18953,-315.88,391,399,-9,-1,,,
872,1761652746,1761652746,7.5,-18950,-315.83,391,400,-9,0,,,
873,1761652747,1761652747,4,-18949,-315.82,391,399,-9,-1,,,
874,1761652748,1761652748,11.5,-18948,-315.8,391,399,-9,-1,,,
875,1761652749,1761652749,6,-18947,-315.78,391,401,-9,1,,,
877,1761652751,1761652751,4,-18945,-315.75,391,400,-9,0,,,
880,1761652754,1761652754,10.5,-18942,-315.7,391,400,-9,0,,,
887,1761652761,1761652761,6.5,-18935,-315.58,391,400,-9,0,,,
889,1761652763,1761652763,4.5,-18933,-315.55,391,400,-9,0,,,
892,1761652766,1761652766,10,-18930,-315.5,391,398,-9,-2,,,
900,1761652774,1761652774,9.5,-18922,-315.37,391,399,-9,-1,,,
901,1761652775,1761652775,4.5,-18921,-315.35,391,398,-9,-2,,,
906,1761652780,1761652780,10,-18916,-315.27,391,400,-9,0,,,
910,1761652784,1761652784,13,-18912,-315.2,391,399,-9,-1,,,
920,1761652794,1761652794,10,-18902,-315.03,391,400,-9,0,,,
928,1761652802,1761652802,9,-18894,-314.9,391,399,-9,-1,,,
930,1761652804,1761652804,9.5,-18892,-314.87,391,400,-9,0,,,
932,1761652806,1761652806,12,-18890,-314.83,391,400,-9,0,,,
934,1761652808,1761652808,11,-18888,-314.8,391,401,-9,1,,,
939,1761652813,1761652813,2,-18883,-314.72,391,399,-9,-1,,,
940,1761652814,1761652814,9,-18882,-314.7,391,399,-9,-1,,,
941,1761652815,1761652815,3,-18881,-314.68,391,400,-9,0,,,
942,1761652816,1761652816,12,-18879.9,-314.67,391,399,-9,-1,,,
947,1761652821,1761652821,8,-18875,-314.58,391,400,-9,0,,,
948,1761652822,1761652822,11.5,-18873.9,-314.57,391,400,-9,0,,,
951,1761652825,1761652825,6,-18871,-314.52,391,400,-9,0,,,
956,1761652830,1761652830,11,-18865.9,-314.43,391,399,-9,-1,,,
957,1761652831,1761652831,8.5,-18864.9,-314.42,391,399,-9,-1,,,
958,1761652832,1761652832,10.5,-18863.9,-314.4,391,398,-9,-2,,,
959,1761652833,1761652833,6,-18862.9,-314.38,391,399,-9,-1,,,
961,1761652835,1761652835,4,-18860.9,-314.35,391,399,-9,-1,,,
963,1761652837,1761652837,7.5,-18858.9,-314.32,391,400,-9,0,,,
964,1761652838,1761652838,12,-18857.9,-314.3,391,399,-9,-1,,,
969,1761652843,1761652843,6,-18852.9,-314.22,391,399,-9,-1,,,
973,1761652847,1761652847,7,-18848.9,-314.15,391,399,-9,-1,,,
975,1761652849,1761652849,7,-18846.9,-314.12,391,399,-9,-1,,,
976,1761652850,1761652850,14,-18845.9,-314.1,391,400,-9,0,,,
978,1761652852,1761652852,14,-18843.9,-314.07,391,400,-9,0,,,
983,1761652857,1761652857,8,-18838.9,-313.98,391,400,-9,0,,,
985,1761652859,1761652859,8,-18836.9,-313.95,391,400,-9,0,,,
986,1761652860,1761652860,5.5,-18835.9,-313.93,391,400,-9,0,,,
998,1761652872,1761652872,2.5,-18823.9,-313.73,391,400,-9,0,,,
1000,1761652874,1761652874,5,-18821.9,-313.7,391,400,-9,0,,,
1006,1761652880,1761652880,3.5,-18815.9,-313.6,391,400,-9,0,,,
1007,1761652881,1761652881,11.5,-18814.9,-313.58,391,398,-9,-2,,,
1018,1761652892,1761652892,8,-18803.9,-313.4,391,400,-9,0,,,
1020,1761652894,1761652894,5.5,-18801.9,-313.37,391,400,-9,0,,,
1023,1761652897,1761652897,13,-18798.9,-313.32,391,401,-9,1,,,
1024,1761652898,1761652898,5.5,-18797.9,-313.3,391,399,-9,-1,,,
1025,1761652899,1761652899,11.5,-18796.9,-313.28,391,399,-9,-1,,,
1027,1761652901,1761652901,13.5,-18794.9,-313.25,391,400,-9,0,,,
1033,1761652907,1761652907,9.5,-18788.9,-313.15,391,400,-9,0,,,
1034,1761652908,1761652908,4.5,-18787.9,-313.13,391,400,-9,0,,,
1035,1761652909,1761652909,8.5,-18786.9,-313.12,391,400,-9,0,,,
1038,1761652912,1761652912,5.5,-18783.9,-313.07,391,401,-9,1,,,
1041,1761652915,1761652915,10,-18780.9,-313.02,391,400,-9,0,,,
1044,1761652918,1761652918,2.5,-18777.9,-312.97,391,399,-9,-1,,,
1046,1761652920,1761652920,4.5,-18775.9,-312.93,391,399,-9,-1,,,
1048,1761652922,1761652922,6.5,-18773.9,-312.9,391,399,-9,-1,,,
1051,1761652925,1761652925,12.5,-18770.9,-312.85,391,400,-9,0,,,
1057,1761652931,1761652931,5,-18764.9,-312.75,391,400,-9,0,,,
1062,1761652936,1761652936,2,-18759.9,-312.67,391,398,-9,-2,,,
1064,1761652938,1761652938,3.5,-18757.9,-312.63,391,400,-9,0,,,
1070,1761652944,1761652944,5.5,-18751.9,-312.53,391,401,-9,1,,,
1074,1761652948,1761652948,6,-18747.9,-312.47,391,400,-9,0,,,
1077,1761652951,1761652951,12,-18744.9,-312.42,391,400,-9,0,,,
1080,1761652954,1761652954,14.5,-18741.9,-312.36,391,399,-9,-1,,,
1081,1761652955,1761652955,7,-18740.9,-312.35,391,399,-9,-1,,,
1086,1761652960,1761652960,13,-18735.9,-312.26,391,400,-9,0,,,
1087,1761652961,1761652961,9,-18734.9,-312.25,391,400,-9,0,,,
1089,1761652963,1761652963,7,-18732.9,-312.22,391,397,-9,-3,,,
1094,1761652968,1761652968,11,-18727.9,-312.13,391,399,-9,-1,,,
1100,1761652974,1761652974,2.5,-18721.9,-312.03,391,399,-9,-1,,,
1103,1761652977,1761652977,5.5,-18718.9,-311.98,391,400,-9,0,,,
1105,1761652979,1761652979,7,-18716.9,-311.95,391,399,-9,-1,,,
1107,1761652981,1761652981,6.5,-18714.9,-311.91,391,399,-9,-1,,,
1108,1761652982,1761652982,10,-18713.9,-311.9,391,400,-9,0,,,
1109,1761652983,1761652983,5.5,-18712.9,-311.88,391,399,-9,-1,,,
1112,1761652986,1761652986,12.5,-18709.9,-311.83,391,400,-9,0,,,
1113,1761652987,1761652987,9,-18708.9,-311.81,391,400,-9,0,,,
1116,1761652990,1761652990,12,-18705.9,-311.76,391,399,-9,-1,,,
1117,1761652991,1761652991,6,-18704.9,-311.75,391,399,-9,-1,,,
1118,1761652992,1761652992,13.5,-18703.9,-311.73,391,400,-9,0,,,
1119,1761652993,1761652993,7.5,-18702.9,-311.71,391,401,-9,1,,,
1122,1761652996,1761652996,14.5,-18699.9,-311.66,391,399,-9,-1,,,
1130,1761653004,1761653004,11.5,-18691.9,-311.53,391,399,-9,-1,,,
1131,1761653005,1761653005,4.5,-18690.9,-311.51,391,400,-9,0,,,
1132,1761653006,1761653006,11.5,-18689.9,-311.5,391,400,-9,0,,,
1136,1761653010,1761653010,10,-18685.9,-311.43,391,398,-9,-2,,,
1138,1761653012,1761653012,10.5,-18683.9,-311.4,391,399,-9,-1,,,
1139,1761653013,1761653013,8.5,-18682.9,-311.38,391,400,-9,0,,,
1140,1761653014,1761653014,13,-18681.9,-311.36,391,399,-9,-1,,,
1142,1761653016,1761653016,12,-18679.9,-311.33,391,399,-9,-1,,,
1151,1761653025,1761653025,8,-18670.9,-311.18,391,400,-9,0,,,
1160,1761653034,1761653034,9,-18661.9,-311.03,391,400,-9,0,,,
1161,1761653035,1761653035,5.5,-18660.9,-311.01,391,399,-9,-1,,,
1162,1761653036,1761653036,8,-18659.9,-311,391,398,-9,-2,,,
1167,1761653041,1761653041,5.5,-18654.9,-310.91,391,399,-9,-1,,,
1171,1761653045,1761653045,7.5,-18650.9,-310.85,391,401,-9,1,,,
1172,1761653046,1761653046,10,-18649.9,-310.83,391,400,-9,0,,,
1173,1761653047,1761653047,2.5,-18648.9,-310.81,391,399,-9,-1,,,
1177,1761653051,1761653051,5,-18644.9,-310.75,391,400,-9,0,,,
1178,1761653052,1761653052,11,-18643.9,-310.73,391,400,-9,0,,,
1180,1761653054,1761653054,10.5,-18641.9,-310.7,391,400,-9,0,,,
1183,1761653057,1761653057,8.5,-18638.9,-310.65,391,399,-9,-1,,,
1185,1761653059,1761653059,3.5,-18636.9,-310.61,391,398,-9,-2,,,
1187,1761653061,1761653061,3,-18634.9,-310.58,391,399,-9,-1,,,
1188,1761653062,1761653062,14.5,-18633.9,-310.56,391,399,-9,-1,,,
1200,1761653074,1761653074,10,-18621.9,-310.36,391,400,-9,0,,,
1203,1761653077,1761653077,3,-18618.9,-310.31,391,400,-9,0,,,
1212,1761653086,1761653086,8.5,-18609.9,-310.16,391,401,-9,1,,,
1213,1761653087,1761653087,2,-18608.9,-310.15,391,400,-9,0,,,
1219,1761653093,1761653093,3,-18602.9,-310.05,391,400,-9,0,,,
1221,1761653095,1761653095,7,-18600.9,-310.01,391,400,-9,0,,,
1224,1761653098,1761653098,8.5,-18597.9,-309.96,391,401,-9,1,,,
1227,1761653101,1761653101,3.5,-18594.9,-309.91,391,398,-9,-2,,,
1243,1761653117,1761653117,5,-18578.8,-309.65,391,398,-9,-2,,,
1246,1761653120,1761653120,10.5,-18575.8,-309.6,391,399,-9,-1,,,
1247,1761653121,1761653121,2,-18574.8,-309.58,391,400,-9,0,,,
1252,1761653126,1761653126,8.5,-18569.8,-309.5,391,399,-9,-1,,,
1255,1761653129,1761653129,2,-18566.8,-309.45,391,399,-9,-1,,,
1256,1761653130,1761653130,8,-18565.8,-309.43,391,399,-9,-1,,,
1260,1761653134,1761653134,10,-18561.8,-309.36,391,399,-9,-1,,,
1264,1761653138,1761653138,12.5,-18557.8,-309.3,391,401,-9,1,,,
1267,1761653141,1761653141,2.5,-18554.8,-309.25,391,399,-9,-1,,,
1269,1761653143,1761653143,14,-18552.8,-309.21,391,399,-9,-1,,,
1277,1761653151,1761653151,13.5,-18544.8,-309.08,391,400,-9,0,,,
1278,1761653152,1761653152,7,-18543.8,-309.06,391,398,-9,-2,,,
1280,1761653154,1761653154,9.5,-18541.8,-309.03,391,400,-9,0,,,
1282,1761653156,1761653156,6,-18539.8,-309,391,399,-9,-1,,,
1284,1761653158,1761653158,7,-18537.8,-308.96,391,399,-9,-1,,,
1288,1761653162,1761653162,9.5,-18533.8,-308.9,391,397,-9,-3,,,
1292,1761653166,1761653166,8,-18529.8,-308.83,391,400,-9,0,,,
1294,1761653168,1761653168,8,-18527.8,-308.8,391,399,-9,-1,,,
1302,1761653176,1761653176,10,-18519.8,-308.66,391,400,-9,0,,,
1307,1761653181,1761653181,5.5,-18514.8,-308.58,391,399,-9,-1,,,
1309,1761653183,1761653183,6.5,-18512.8,-308.55,391,399,-9,-1,,,
1314,1761653188,1761653188,7.5,-18507.8,-308.46,391,400,-9,0,,,
1317,1761653191,1761653191,2.5,-18504.8,-308.41,391,398,-9,-2,,,
1320,1761653194,1761653194,12,-18501.8,-308.36,391,399,-9,-1,,,
1324,1761653198,1761653198,9.5,-18497.8,-308.3,391,399,-9,-1,,,
1326,1761653200,1761653200,9.5,-18495.8,-308.26,391,400,-9,0,,,
1331,1761653205,1761653205,10,-18490.8,-308.18,391,400,-9,0,,,
1334,1761653208,1761653208,12,-18487.8,-308.13,391,397,-9,-3,,,
1336,1761653210,1761653210,15.5,-18485.8,-308.1,391,400,-9,0,,,
1348,1761653222,1761653222,3,-18473.8,-307.9,391,400,-9,0,,,
1357,1761653231,1761653231,11.5,-18464.8,-307.75,391,400,-9,0,,,
1359,1761653233,1761653233,14,-18462.8,-307.71,391,401,-9,1,,,
1362,1761653236,1761653236,6,-18459.8,-307.66,391,399,-9,-1,,,
1368,1761653242,1761653242,11,-18453.8,-307.56,391,399,-9,-1,,,
1371,1761653245,1761653245,5.5,-18450.8,-307.51,391,399,-9,-1,,,
1374,1761653248,1761653248,16.5,-18447.8,-307.46,391,400,-9,0,,,
1385,1761653259,1761653259,10.5,-18436.8,-307.28,391,397,-9,-3,,,
1387,1761653261,1761653261,5,-18434.8,-307.25,391,398,-9,-2,,,
1388,1761653262,1761653262,2.5,-18433.8,-307.23,391,400,-9,0,,,
1406,1761653280,1761653280,3,-18415.8,-306.93,391,399,-9,-1,,,
1407,1761653281,1761653281,10.5,-18414.8,-306.91,391,400,-9,0,,,
1408,1761653282,1761653282,4.5,-18413.8,-306.9,391,400,-9,0,,,
1411,1761653285,1761653285,7.5,-18410.8,-306.85,391,398,-9,-2,,,
1413,1761653287,1761653287,8.5,-18408.8,-306.81,391,400,-9,0,,,
1417,1761653291,1761653291,10.5,-18404.8,-306.75,391,399,-9,-1,,,
1420,1761653294,1761653294,6.5,-18401.8,-306.7,391,399,-9,-1,,,
1421,1761653295,1761653295,10,-18400.8,-306.68,391,399,-9,-1,,,
1422,1761653296,1761653296,3,-18399.8,-306.66,391,399,-9,-1,,,
1426,1761653300,1761653300,4,-18395.8,-306.6,391,399,-9,-1,,,
1433,1761653307,1761653307,13,-18388.8,-306.48,391,401,-9,1,,,
1435,1761653309,1761653309,11.5,-18386.8,-306.45,391,399,-9,-1,,,
1438,1761653312,1761653312,4.5,-18383.8,-306.4,391,400,-9,0,,,
1455,1761653329,1761653329,5.5,-18366.8,-306.11,391,400,-9,0,,,
1458,1761653332,1761653332,10.5,-18363.8,-306.06,391,400,-9,0,,,
1459,1761653333,1761653333,3.5,-18362.8,-306.05,391,399,-9,-1,,,
1462,1761653336,1761653336,8,-18359.8,-306,391,399,-9,-1,,,
1463,1761653337,1761653337,5.5,-18358.8,-305.98,391,400,-9,0,,,
1464,1761653338,1761653338,10,-18357.8,-305.96,391,400,-9,0,,,
1466,1761653340,1761653340,10.5,-18355.8,-305.93,391,399,-9,-1,,,
1468,1761653342,1761653342,14.5,-18353.8,-305.9,391,400,-9,0,,,
1471,1761653345,1761653345,1,-18350.8,-305.85,391,399,-9,-1,,,
1472,1761653346,1761653346,11.5,-18349.8,-305.83,391,399,-9,-1,,,
1473,1761653347,1761653347,6.5,-18348.8,-305.81,391,400,-9,0,,,
1474,1761653348,1761653348,12,-18347.8,-305.8,391,398,-9,-2,,,
1482,1761653356,1761653356,10.5,-18339.8,-305.66,391,399,-9,-1,,,
1483,1761653357,1761653357,4,-18338.8,-305.65,391,400,-9,0,,,
1484,1761653358,1761653358,11.5,-18337.8,-305.63,391,398,-9,-2,,,
1485,1761653359,1761653359,5.5,-18336.8,-305.61,391,400,-9,0,,,
1487,1761653361,1761653361,6,-18334.8,-305.58,391,398,-9,-2,,,
1489,1761653363,1761653363,5,-18332.8,-305.55,391,398,-9,-2,,,
1491,1761653365,1761653365,9.5,-18330.8,-305.51,391,399,-9,-1,,,
1492,1761653366,1761653366,15.5,-18329.7,-305.5,391,400,-9,0,,,
1494,1761653368,1761653368,2,-18327.8,-305.46,391,400,-9,0,,,
1495,1761653369,1761653369,6,-18326.8,-305.45,391,399,-9,-1,,,
1506,1761653380,1761653380,4,-18315.7,-305.26,391,400,-9,0,,,
1508,1761653382,1761653382,1.5,-18313.7,-305.23,391,398,-9,-2,,,
1512,1761653386,1761653386,4,-18309.7,-305.16,391,398,-9,-2,,,
1514,1761653388,1761653388,4,-18307.7,-305.13,391,401,-9,1,,,
1517,1761653391,1761653391,7.5,-18304.7,-305.08,391,400,-9,0,,,
1518,1761653392,1761653392,5,-18303.7,-305.06,391,399,-9,-1,,,
1519,1761653393,1761653393,8.5,-18302.7,-305.05,391,400,-9,0,,,
1520,1761653394,1761653394,5,-18301.7,-305.03,391,399,-9,-1,,,
1522,1761653396,1761653396,5.5,-18299.7,-305,391,399,-9,-1,,,
1528,1761653402,1761653402,6.5,-18293.7,-304.9,391,399,-9,-1,,,
1532,1761653406,1761653406,1.5,-18289.7,-304.83,391,397,-9,-3,,,
1539,1761653413,1761653413,9,-18282.7,-304.71,391,400,-9,0,,,
1542,1761653416,1761653416,7.5,-18279.7,-304.66,391,400,-9,0,,,
1544,1761653418,1761653418,6,-18277.7,-304.63,391,399,-9,-1,,,
1545,1761653419,1761653419,10.5,-18276.7,-304.61,391,400,-9,0,,,
1549,1761653423,1761653423,7,-18272.7,-304.55,391,401,-9,1,,,
1551,1761653425,1761653425,9.5,-18270.7,-304.51,391,399,-9,-1,,,
1553,1761653427,1761653427,8.5,-18268.7,-304.48,391,399,-9,-1,,,
1557,1761653431,1761653431,7,-18264.7,-304.41,391,400,-9,0,,,
1558,1761653432,1761653432,6,-18263.7,-304.4,391,400,-9,0,,,
1559,1761653433,1761653433,12,-18262.7,-304.38,391,401,-9,1,,,
1560,1761653434,1761653434,2.5,-18261.7,-304.36,391,400,-9,0,,,
1562,1761653436,1761653436,6,-18259.7,-304.33,391,400,-9,0,,,
1563,1761653437,1761653437,6.5,-18258.7,-304.31,391,400,-9,0,,,
1564,1761653438,1761653438,11,-18257.7,-304.3,391,396,-9,-4,,,
1567,1761653441,1761653441,9.5,-18254.7,-304.25,391,399,-9,-1,,,
1571,1761653445,1761653445,6.5,-18250.7,-304.18,391,401,-9,1,,,
1576,1761653450,1761653450,5.5,-18245.7,-304.1,391,399,-9,-1,,,
1577,1761653451,1761653451,10.5,-18244.7,-304.08,391,400,-9,0,,,
1581,1761653455,1761653455,8.5,-18240.7,-304.01,391,399,-9,-1,,,
1586,1761653460,1761653460,1,-18235.7,-303.93,391,400,-9,0,,,
1591,1761653465,1761653465,10,-18230.7,-303.85,391,400,-9,0,,,
1595,1761653469,1761653469,8.5,-18226.7,-303.78,391,400,-9,0,,,
1602,1761653476,1761653476,4.5,-18219.7,-303.66,391,400,-9,0,,,
1606,1761653480,1761653480,3,-18215.7,-303.6,391,398,-9,-2,,,
1618,1761653492,1761653492,7,-18203.7,-303.4,391,400,-9,0,,,
1619,1761653493,1761653493,12,-18202.7,-303.38,391,400,-9,0,,,
1626,1761653500,1761653500,6.5,-18195.7,-303.26,391,400,-9,0,,,
1629,1761653503,1761653503,12,-18192.7,-303.21,391,401,-9,1,,,
1630,1761653504,1761653504,6,-18191.7,-303.2,391,398,-9,-2,,,
1631,1761653505,1761653505,11.5,-18190.7,-303.18,391,400,-9,0,,,
1634,1761653508,1761653508,6,-18187.7,-303.13,391,400,-9,0,,,
1635,1761653509,1761653509,13,-18186.7,-303.11,391,400,-9,0,,,
1637,1761653511,1761653511,8,-18184.7,-303.08,391,398,-9,-2,,,
1641,1761653515,1761653515,11,-18180.7,-303.01,391,399,-9,-1,,,
1643,1761653517,1761653517,13,-18178.7,-302.98,391,401,-9,1,,,
1644,1761653518,1761653518,6.5,-18177.7,-302.96,391,398,-9,-2,,,
1650,1761653524,1761653524,2.5,-18171.7,-302.86,391,398,-9,-2,,,
1652,1761653526,1761653526,7.5,-18169.7,-302.83,391,400,-9,0,,,
1657,1761653531,1761653531,2.5,-18164.7,-302.74,391,400,-9,0,,,
1658,1761653532,1761653532,6,-18163.7,-302.73,391,399,-9,-1,,,
1660,1761653534,1761653534,8.5,-18161.7,-302.69,391,399,-9,-1,,,
1661,1761653535,1761653535,5.5,-18160.7,-302.68,391,401,-9,1,,,
1666,1761653541,1761653540,9,-18155.7,-302.59,391,400,-9,0,,,
1668,1761653543,1761653542,10,-18153.7,-302.56,391,400,-9,0,,,
1670,1761653545,1761653544,9,-18151.7,-302.53,391,399,-9,-1,,,
1675,1761653550,1761653549,7.5,-18146.7,-302.44,391,400,-9,0,,,
1677,1761653552,1761653551,4,-18144.7,-302.41,391,400,-9,0,,,
1679,1761653554,1761653553,6,-18142.7,-302.38,391,400,-9,0,,,
1681,1761653556,1761653556,5,-18140.7,-302.34,391,398,-9,-2,,,
1687,1761653562,1761653561,9.5,-18134.7,-302.24,391,400,-9,0,,,
1688,1761653563,1761653563,10.5,-18133.7,-302.23,391,399,-9,-1,,,
1692,1761653567,1761653567,12.5,-18129.7,-302.16,391,400,-9,0,,,
1706,1761653581,1761653581,7,-18115.7,-301.93,391,400,-9,0,,,
1707,1761653582,1761653582,4.5,-18114.7,-301.91,391,400,-9,0,,,
1709,1761653584,1761653584,7,-18112.7,-301.88,391,399,-9,-1,,,
1713,1761653588,1761653588,2,-18108.7,-301.81,391,400,-9,0,,,
1714,1761653589,1761653589,6.5,-18107.7,-301.79,391,400,-9,0,,,
1717,1761653592,1761653592,6.5,-18104.7,-301.74,391,400,-9,0,,,
1718,1761653593,1761653593,8.5,-18103.7,-301.73,391,399,-9,-1,,,
1719,1761653594,1761653594,2,-18102.7,-301.71,391,398,-9,-2,,,
1720,1761653595,1761653595,10.5,-18101.7,-301.69,391,400,-9,0,,,
1721,1761653596,1761653596,6,-18100.7,-301.68,391,400,-9,0,,,
1723,1761653598,1761653598,6,-18098.7,-301.64,391,400,-9,0,,,
1726,1761653601,1761653601,10,-18095.7,-301.59,391,401,-9,1,,,
1730,1761653605,1761653605,11.5,-18091.7,-301.53,391,400,-9,0,,,
1733,1761653608,1761653608,3,-18088.7,-301.48,391,399,-9,-1,,,
1735,1761653610,1761653610,4,-18086.7,-301.44,391,400,-9,0,,,
1744,1761653619,1761653619,9,-18077.7,-301.29,391,401,-9,1,,,
1746,1761653621,1761653621,8.5,-18075.7,-301.26,391,400,-9,0,,,
1747,1761653622,1761653622,0,-18074.7,-301.24,391,399,-9,-1,,,
1748,1761653623,1761653623,12,-18073.6,-301.23,391,398,-9,-2,,,
1750,1761653625,1761653625,8,-18071.7,-301.19,391,400,-9,0,,,
1751,1761653626,1761653626,4.5,-18070.7,-301.18,391,400,-9,0,,,
1753,1761653628,1761653628,4.5,-18068.7,-301.14,391,400,-9,0,,,
1755,1761653630,1761653630,6,-18066.7,-301.11,391,399,-9,-1,,,
1756,1761653631,1761653631,10.5,-18065.6,-301.09,391,399,-9,-1,,,
1759,1761653634,1761653634,5.5,-18062.7,-301.04,391,399,-9,-1,,,
1762,1761653637,1761653637,7.5,-18059.6,-300.99,391,399,-9,-1,,,
1763,1761653638,1761653638,6.5,-18058.6,-300.98,391,399,-9,-1,,,
1766,1761653641,1761653641,11.5,-18055.6,-300.93,391,400,-9,0,,,
1769,1761653644,1761653644,5.5,-18052.6,-300.88,391,399,-9,-1,,,
1782,1761653657,1761653657,10.5,-18039.6,-300.66,391,400,-9,0,,,
1789,1761653664,1761653664,1,-18032.6,-300.54,391,398,-9,-2,,,
1796,1761653671,1761653671,11,-18025.6,-300.43,391,399,-9,-1,,,
1799,1761653674,1761653674,8,-18022.6,-300.38,391,399,-9,-1,,,
1804,1761653679,1761653679,11,-18017.6,-300.29,391,399,-9,-1,,,
1811,1761653686,1761653686,7.5,-18010.6,-300.18,391,399,-9,-1,,,
1814,1761653689,1761653689,5.5,-18007.6,-300.13,391,399,-9,-1,,,
1822,1761653697,1761653697,11,-17999.6,-299.99,391,399,-9,-1,,,
1828,1761653703,1761653703,6.5,-17993.6,-299.89,391,400,-9,0,,,
1829,1761653704,1761653704,5,-17992.6,-299.88,391,400,-9,0,,,
1831,1761653706,1761653706,5,-17990.6,-299.84,391,400,-9,0,,,
1832,1761653707,1761653707,13,-17989.6,-299.83,391,398,-9,-2,,,
1834,1761653709,1761653709,8,-17987.6,-299.79,391,400,-9,0,,,
1835,1761653710,1761653710,2,-17986.6,-299.78,391,399,-9,-1,,,
1837,1761653712,1761653712,5.5,-17984.6,-299.74,391,398,-9,-2,,,
1839,1761653714,1761653714,6,-17982.6,-299.71,391,400,-9,0,,,
1840,1761653715,1761653715,9,-17981.6,-299.69,391,399,-9,-1,,,
1841,1761653716,1761653716,3,-17980.6,-299.68,391,400,-9,0,,,
1850,1761653725,1761653725,12.5,-17971.6,-299.53,391,401,-9,1,,,
1852,1761653727,1761653727,12,-17969.6,-299.49,391,399,-9,-1,,,
1859,1761653734,1761653734,7.5,-17962.6,-299.38,391,401,-9,1,,,
1860,1761653735,1761653735,9,-17961.6,-299.36,391,399,-9,-1,,,
1862,1761653737,1761653737,12.5,-17959.6,-299.33,391,400,-9,0,,,
1874,1761653749,1761653749,9,-17947.6,-299.13,391,399,-9,-1,,,
1875,1761653750,1761653750,7.5,-17946.6,-299.11,391,400,-9,0,,,
1876,1761653751,1761653751,9.5,-17945.6,-299.09,391,399,-9,-1,,,
1877,1761653752,1761653752,6,-17944.6,-299.08,391,400,-9,0,,,
1878,1761653753,1761653753,5,-17943.6,-299.06,391,399,-9,-1,,,
1881,1761653756,1761653756,4.5,-17940.6,-299.01,391,398,-9,-2,,,
1887,1761653762,1761653762,7,-17934.6,-298.91,391,401,-9,1,,,
1889,1761653764,1761653764,5.5,-17932.6,-298.88,391,399,-9,-1,,,
1890,1761653765,1761653765,9.5,-17931.6,-298.86,391,400,-9,0,,,
1891,1761653766,1761653766,4.5,-17930.6,-298.84,391,400,-9,0,,,
1893,1761653768,1761653768,6,-17928.6,-298.81,391,400,-9,0,,,
1894,1761653769,1761653769,9.5,-17927.6,-298.79,391,400,-9,0,,,
1895,1761653770,1761653770,6,-17926.6,-298.78,391,400,-9,0,,,
1899,1761653774,1761653774,6,-17922.6,-298.71,391,398,-9,-2,,,
1900,1761653775,1761653775,13,-17921.6,-298.69,391,401,-9,1,,,
1906,1761653781,1761653781,8.5,-17915.6,-298.59,391,399,-9,-1,,,
1907,1761653782,1761653782,7.5,-17914.6,-298.58,391,399,-9,-1,,,
1909,1761653784,1761653784,8,-17912.6,-298.54,391,399,-9,-1,,,
1910,1761653785,1761653785,16,-17911.6,-298.53,391,401,-9,1,,,
1912,1761653787,1761653787,12.5,-17909.6,-298.49,391,400,-9,0,,,
1919,1761653794,1761653794,7.5,-17902.6,-298.38,391,399,-9,-1,,,
1920,1761653795,1761653795,7.5,-17901.6,-298.36,391,398,-9,-2,,,
1923,1761653798,1761653798,8,-17898.6,-298.31,391,399,-9,-1,,,
1925,1761653800,1761653800,9.5,-17896.6,-298.28,391,400,-9,0,,,
1928,1761653803,1761653803,2,-17893.6,-298.23,391,399,-9,-1,,,
1929,1761653804,1761653804,9,-17892.6,-298.21,391,398,-9,-2,,,
1932,1761653807,1761653807,4,-17889.6,-298.16,391,399,-9,-1,,,
1933,1761653808,1761653808,8,-17888.6,-298.14,391,400,-9,0,,,
1939,1761653814,1761653814,4.5,-17882.6,-298.04,391,399,-9,-1,,,
1942,1761653817,1761653817,6.5,-17879.6,-297.99,391,401,-9,1,,,
1943,1761653818,1761653818,8.5,-17878.6,-297.98,391,400,-9,0,,,
1945,1761653820,1761653820,11,-17876.6,-297.94,391,399,-9,-1,,,
1948,1761653823,1761653823,5,-17873.6,-297.89,391,400,-9,0,,,
1955,1761653830,1761653830,10,-17866.6,-297.78,391,399,-9,-1,,,
1957,1761653832,1761653832,9.5,-17864.6,-297.74,391,399,-9,-1,,,
1959,1761653834,1761653834,11.5,-17862.6,-297.71,391,399,-9,-1,,,
1963,1761653838,1761653838,11,-17858.6,-297.64,391,400,-9,0,,,
1964,1761653839,1761653839,6,-17857.6,-297.63,391,400,-9,0,,,
1967,1761653842,1761653842,11,-17854.6,-297.58,391,399,-9,-1,,,
1968,1761653843,1761653843,5,-17853.6,-297.56,391,400,-9,0,,,
1973,1761653848,1761653848,9.5,-17848.6,-297.48,391,400,-9,0,,,
1975,1761653850,1761653850,7,-17846.6,-297.44,391,399,-9,-1,,,
1976,1761653851,1761653851,4.5,-17845.6,-297.43,391,400,-9,0,,,
1989,1761653864,1761653864,12.5,-17832.6,-297.21,391,400,-9,0,,,
1990,1761653865,1761653865,6,-17831.6,-297.19,391,400,-9,0,,,
1992,1761653867,1761653867,4.5,-17829.6,-297.16,391,400,-9,0,,,
1995,1761653870,1761653870,11,-17826.6,-297.11,391,399,-9,-1,,,
1997,1761653872,1761653872,13,-17824.6,-297.08,391,400,-9,0,,,
2000,1761653875,1761653875,4,-17821.6,-297.03,391,398,-9,-2,,,
2003,1761653878,1761653878,11,-17818.6,-296.98,391,398,-9,-2,,,
2008,1761653883,1761653883,8.5,-17813.6,-296.89,391,399,-9,-1,,,
2010,1761653885,1761653885,6.5,-17811.6,-296.86,391,400,-9,0,,,
2011,1761653886,1761653886,3,-17810.6,-296.84,391,399,-9,-1,,,
2014,1761653889,1761653889,9.5,-17807.6,-296.79,391,400,-9,0,,,
2017,1761653892,1761653892,1,-17804.6,-296.74,391,399,-9,-1,,,
2019,1761653894,1761653894,1,-17802.6,-296.71,391,400,-9,0,,,
2024,1761653899,1761653899,10,-17797.5,-296.63,391,400,-9,0,,,
2025,1761653900,1761653900,1.5,-17796.6,-296.61,391,399,-9,-1,,,
2033,1761653908,1761653908,4.5,-17788.5,-296.48,391,400,-9,0,,,
2035,1761653910,1761653910,3,-17786.5,-296.44,391,399,-9,-1,,,
2039,1761653914,1761653914,8,-17782.5,-296.38,391,398,-9,-2,,,
2041,1761653916,1761653916,5.5,-17780.5,-296.34,391,400,-9,0,,,
2042,1761653917,1761653917,12,-17779.5,-296.33,391,400,-9,0,,,
2047,1761653922,1761653922,5,-17774.5,-296.24,391,400,-9,0,,,
2054,1761653929,1761653929,11.5,-17767.5,-296.13,391,401,-9,1,,,
2064,1761653939,1761653939,10,-17757.5,-295.96,391,401,-9,1,,,
2069,1761653944,1761653944,6,-17752.5,-295.88,391,398,-9,-2,,,
2071,1761653946,1761653946,7,-17750.5,-295.84,391,399,-9,-1,,,
2072,1761653947,1761653947,14,-17749.5,-295.83,391,400,-9,0,,,
2074,1761653949,1761653949,11.5,-17747.5,-295.79,391,400,-9,0,,,
2078,1761653953,1761653953,15.5,-17743.5,-295.73,391,400,-9,0,,,
2081,1761653956,1761653956,9,-17740.5,-295.68,391,399,-9,-1,,,
2082,1761653957,1761653957,5,-17739.5,-295.66,391,400,-9,0,,,
2092,1761653967,1761653967,5.5,-17729.5,-295.49,391,399,-9,-1,,,
2094,1761653969,1761653969,3,-17727.5,-295.46,391,400,-9,0,,,
2095,1761653970,1761653970,11.5,-17726.5,-295.44,391,399,-9,-1,,,
2096,1761653971,1761653971,3,-17725.5,-295.43,391,399,-9,-1,,,
2104,1761653979,1761653979,7.5,-17717.5,-295.29,391,400,-9,0,,,
2107,1761653982,1761653982,12.5,-17714.5,-295.24,391,399,-9,-1,,,
2112,1761653987,1761653987,8,-17709.5,-295.16,391,401,-9,1,,,
2115,1761653990,1761653990,10.5,-17706.5,-295.11,391,399,-9,-1,,,
2126,1761654001,1761654001,8.5,-17695.5,-294.93,391,399,-9,-1,,,
2127,1761654002,1761654002,12,-17694.5,-294.91,391,400,-9,0,,,
2129,1761654004,1761654004,9.5,-17692.5,-294.88,391,399,-9,-1,,,
2130,1761654005,1761654005,3.5,-17691.5,-294.86,391,398,-9,-2,,,
2131,1761654006,1761654006,11,-17690.5,-294.84,391,400,-9,0,,,
2132,1761654007,1761654007,8.5,-17689.5,-294.83,391,400,-9,0,,,
2139,1761654014,1761654014,10,-17682.5,-294.71,391,401,-9,1,,,
2143,1761654018,1761654018,14.5,-17678.5,-294.64,391,400,-9,0,,,
2149,1761654024,1761654024,14.5,-17672.5,-294.54,391,400,-9,0,,,
2156,1761654031,1761654031,3,-17665.5,-294.43,391,399,-9,-1,,,
2160,1761654035,1761654035,6,-17661.5,-294.36,391,398,-9,-2,,,
2162,1761654037,1761654037,10.5,-17659.5,-294.32,391,400,-9,0,,,
2163,1761654038,1761654038,2,-17658.5,-294.31,391,399,-9,-1,,,
2168,1761654043,1761654043,7,-17653.5,-294.22,391,400,-9,0,,,
2169,1761654044,1761654044,1,-17652.5,-294.21,391,398,-9,-2,,,
2172,1761654047,1761654047,9.5,-17649.5,-294.16,391,398,-9,-2,,,
2177,1761654052,1761654052,4.5,-17644.5,-294.07,391,400,-9,0,,,
2178,1761654053,1761654053,9,-17643.5,-294.06,391,400,-9,0,,,
2183,1761654058,1761654058,10,-17638.5,-293.97,391,398,-9,-2,,,
2190,1761654065,1761654065,6.5,-17631.5,-293.86,391,400,-9,0,,,
